1499242950.00
64.000000
-0.00
-0.00
-0.00
-0.00
-0.00
-0.00
-0.00
-0.00
-0.00
-0.00
0.00
0.01
0.01
-0.00
-0.03
-0.05
-0.05
0.00
0.13
0.36
0.66
1.01
1.37
1.72
2.06
2.40
2.79
3.24
3.80
4.42
5.06
5.66
6.20
6.68
7.15
7.68
8.31
9.14
10.09
11.04
11.88
12.56
13.14
13.76
14.65
15.96
17.91
20.32
22.90
25.38
27.58
29.57
31.68
34.32
37.81
42.54
48.15
54.10
59.83
64.97
69.58
74.14
79.34
85.71
93.76
103.00
112.62
121.73
129.77
136.75
143.30
150.75
157.77
166.64
177.95
191.79
206.97
220.57
228.25
225.36
208.53
176.87
132.76
80.05
23.07
-34.94
-92.44
-149.16
-205.23
-260.37
-313.74
-363.87
-409.83
-450.91
-486.50
-515.74
-537.23
-549.22
-549.96
-538.37
-514.21
-478.67
-433.88
-382.45
-327.02
-269.84
-212.63
-156.66
-102.95
-52.37
-5.90
35.58
71.43
101.35
125.50
144.38
158.69
169.15
176.37
180.75
182.57
182.07
179.51
175.23
169.65
163.18
156.15
148.81
141.30
133.69
126.02
118.33
110.69
103.16
95.80
88.68
81.83
75.25
68.95
62.95
57.25
51.86
46.78
42.03
37.59
33.45
29.61
26.07
22.81
19.83
17.11
14.67
12.48
10.54
8.83
7.35
6.07
4.97
4.05
3.27
2.62
2.09
1.65
1.30
1.01
0.79
0.61
0.48
0.37
0.29
0.22
0.18
0.14
0.11
0.09
0.08
0.07
0.06
0.05
0.05
0.04
0.04
0.04
0.03
0.03
0.03
0.03
0.03
0.04
0.05
0.06
0.07
0.09
0.12
0.15
0.19
0.23
0.28
0.33
0.39
0.45
0.51
0.57
0.64
0.71
0.78
0.86
0.94
1.03
1.12
1.22
1.32
1.43
1.55
1.68
1.82
1.97
2.14
2.34
2.55
2.79
3.06
3.37
3.71
4.10
4.53
5.00
5.52
6.09
6.71
7.38
8.10
8.87
9.70
10.57
11.50
12.48
13.51
14.59
15.72
16.90
18.14
19.44
20.79
22.19
23.61
25.01
26.35
27.53
28.45
28.97
28.95
28.27
26.82
24.50
21.30
17.20
12.31
6.74
0.71
-5.60
-11.95
-18.09
-23.84
-29.00
-33.47
-37.15
-40.03
-42.12
-43.43
-43.97
-43.75
-42.75
-40.92
-38.17
-34.44
-29.71
-24.00
-17.39
-10.07
-2.26
5.72
13.56
20.91
27.52
33.05
37.30
40.19
41.77
42.17
41.58
40.29
38.62
36.88
35.14
33.52
32.11
31.04
30.44
30.48
31.36
33.37
36.85
41.74
48.03
55.69
64.61
74.62
85.42
96.30
106.78
116.78
126.04
134.45
141.85
148.00
152.59
155.29
155.15
150.88
145.08
138.95
133.41
129.02
125.99
124.38
124.06
123.89
123.21
122.35
121.76
121.93
122.97
124.61
126.42
128.00
126.20
119.29
108.16
95.10
82.21
70.29
59.05
47.67
35.30
15.46
-15.34
-55.17
-98.51
-140.24
-177.88
-211.29
-241.52
-269.94
-307.00
-358.38
-421.00
-485.50
-542.96
-588.53
-621.15
-642.07
-653.79
-671.49
-704.86
-752.67
-805.67
-854.94
-896.53
-930.68
-959.83
-910.69
-756.60
-529.56
-295.03
-101.33
37.74
130.80
194.22
243.67
290.32
327.36
348.24
353.16
348.46
340.38
332.03
324.51
318.35
314.09
301.14
274.83
237.98
198.79
164.50
138.61
121.77
113.58
113.33
114.10
111.15
103.94
94.68
85.01
74.82
63.56
51.58
40.51
29.79
18.02
6.31
-3.59
-11.12
-17.03
-22.51
-28.18
-34.12
-41.07
-49.06
-56.79
-62.19
-63.12
-58.34
-48.12
-34.23
-19.45
-6.87
1.01
2.81
-1.77
-12.01
-26.17
-41.86
-56.67
-68.84
-77.97
-84.79
-90.47
-95.68
-99.85
-100.94
-96.15
-83.18
-61.61
-33.88
-4.93
19.44
35.09
41.75
43.97
49.46
65.79
96.69
140.09
189.01
234.88
271.34
296.60
313.32
326.28
339.68
355.51
373.72
393.35
413.53
433.56
452.20
466.79
473.38
467.74
447.21
412.08
366.08
315.15
265.43
221.12
183.44
151.08
121.75
93.72
66.64
41.29
18.76
-0.28
-15.72
-27.84
-36.96
-43.55
-48.55
-53.75
-61.39
-73.40
-90.21
-110.26
-130.33
-146.80
-157.09
-160.68
-159.23
-155.64
-152.76
-152.11
-153.32
-154.49
-153.23
-147.81
-138.01
-125.15
-111.57
-99.62
-90.80
-84.98
-80.08
-72.48
-58.13
-34.25
-1.05
37.54
74.56
102.21
114.58
109.86
90.64
62.57
32.07
4.21
-18.26
-34.68
-45.59
-51.83
-54.17
-53.35
-50.27
-45.98
-41.40
-37.06
-32.82
-27.99
-21.75
-13.63
-3.80
6.94
17.60
27.41
36.12
43.84
50.78
56.74
61.06
62.76
61.08
55.79
47.38
36.93
25.66
14.69
4.74
-3.82
-10.76
-15.81
-18.59
-18.81
-16.50
-12.31
-7.46
-3.38
-1.23
-1.53
-4.11
-8.41
-13.95
-20.40
-27.41
-34.27
-39.68
-42.05
-40.30
-34.42
-25.74
-16.27
-7.88
-1.51
2.85
5.77
7.69
8.59
8.18
6.26
3.12
-0.45
-3.49
-5.38
-6.11
-6.28
-6.78
-8.33
-11.18
-14.97
-18.94
-22.37
-24.84
-26.46
-27.70
-29.07
-30.76
-32.63
-34.44
-36.08
-37.73
-39.65
-41.94
-44.27
-46.04
-46.77
-46.55
-46.17
-46.74
-49.04
-53.08
-57.91
-62.10
-64.40
-64.49
-63.08
-61.64
-61.60
-63.80
-68.17
-73.89
-79.99
-85.74
-90.84
-95.16
-98.58
-100.90
-102.18
-103.13
-105.32
-110.53
-119.58
-131.48
-143.26
-151.50
-154.19
-152.29
-149.43
-149.74
-154.73
-161.28
-162.24
-149.52
-118.05
-68.09
-4.92
64.06
132.55
196.95
255.48
305.96
344.37
365.48
365.37
343.99
306.17
260.39
215.74
178.84
152.23
134.76
123.01
113.33
103.08
90.96
77.05
62.28
48.01
35.57
26.01
19.82
16.97
17.03
19.19
22.15
24.26
23.81
19.64
11.72
1.25
-9.61
-18.56
-23.94
-25.10
-21.94
-14.44
-2.60
12.89
29.62
43.54
50.34
47.68
36.78
22.08
9.08
1.28
-1.41
-2.35
-5.53
-12.83
-22.70
-31.29
-35.20
-33.76
-29.49
-26.34
-27.26
-32.35
-39.15
-44.27
-45.62
-43.62
-40.81
-40.14
-43.11
-48.93
-55.10
-59.08
-59.92
-58.66
-57.54
-58.52
-62.04
-66.73
-70.12
-69.86
-64.87
-55.83
-44.71
-33.75
-24.38
-16.60
-9.25
-0.67
10.24
23.31
36.85
48.26
54.81
54.79
48.17
36.44
21.99
7.21
-6.15
-17.13
-25.58
-32.03
-37.64
-44.00
-52.81
-64.70
-78.40
-90.43
-96.23
-92.19
-77.58
-55.04
-29.45
-5.80
12.81
25.52
32.98
35.87
34.05
26.72
13.67
-3.65
-21.77
-35.67
-40.29
-31.99
-9.48
25.74
69.56
115.98
158.40
190.98
210.00
214.23
204.56
183.33
153.48
118.41
82.13
49.35
24.95
12.67
13.61
25.43
42.94
59.97
71.80
76.93
76.90
74.83
73.12
71.86
68.74
60.39
44.25
20.18
-9.06
-38.62
-63.20
-78.81
-84.02
-80.33
-71.29
-61.43
-54.69
-53.35
-57.69
-66.26
-76.70
-86.71
-94.81
-100.53
-104.32
-107.07
-109.52
-112.04
-114.42
-115.93
-115.32
-110.97
-101.06
-83.97
-58.99
-26.93
9.66
46.88
80.81
108.71
129.95
145.68
157.70
167.05
173.34
175.15
171.31
161.92
148.47
133.05
117.23
101.53
85.95
71.03
58.37
50.28
48.22
51.23
55.69
56.14
47.27
25.56
-9.74
-56.30
-109.11
-160.97
-203.82
-230.53
-237.23
-224.99
-199.73
-170.16
-144.14
-125.68
-113.73
-103.80
-90.88
-72.38
-49.24
-25.12
-4.39
9.93
17.08
18.44
16.48
13.67
11.55
10.50
10.08
9.57
8.65
7.46
6.43
5.93
5.83
5.55
4.29
1.48
-3.08
-8.97
-15.48
-21.87
-27.47
-31.82
-34.63
-35.78
-35.39
-33.92
-32.00
-30.26
-29.23
-29.25
-30.47
-32.95
-36.88
-42.64
-50.75
-61.19
-73.09
-84.70
-94.09
-99.90
-102.19
-102.37
-102.71
-105.19
-109.93
-115.53
-120.03
-122.24
-121.36
-116.45
-105.24
-85.40
-56.55
-20.95
15.40
44.11
57.41
52.13
31.49
5.19
-16.03
-25.25
-20.43
-5.39
11.95
22.50
19.59
0.92
-29.24
-63.75
-95.30
-115.28
-116.04
-92.45
-43.74
26.24
109.25
196.57
277.49
328.60
326.92
263.42
151.32
17.50
-106.19
-209.97
-289.25
-343.36
-375.79
-386.83
-379.00
-356.41
-324.62
-289.33
-255.89
-226.23
-201.71
-183.38
-169.96
-159.01
-147.89
-135.39
-121.99
-109.59
-98.28
-87.77
-77.33
-64.60
-46.92
-22.11
10.36
49.38
92.63
138.60
185.18
229.46
268.37
298.94
319.19
328.67
328.64
321.43
310.07
296.57
281.54
264.97
247.02
228.73
211.80
197.80
187.47
180.59
175.99
172.29
168.53
164.36
160.01
155.71
151.39
146.49
140.30
132.34
122.66
111.89
100.98
90.81
81.81
73.96
66.83
59.92
52.85
45.56
38.28
31.40
25.37
20.43
16.55
13.40
10.52
7.46
4.02
0.26
-3.61
-7.36
-10.88
-14.27
-17.69
-21.29
-25.00
-28.63
-31.81
-34.23
-35.62
-35.73
-34.36
-31.37
-26.76
-20.73
-13.79
-6.66
-0.13
5.26
9.25
11.95
13.60
14.38
14.38
13.63
12.23
10.38
8.43
6.69
5.30
4.17
3.12
1.98
0.75
-0.47
-1.63
-2.76
-4.02
-5.58
-7.50
-9.68
-11.97
-14.22
-16.44
-18.69
-21.09
-23.62
-26.16
-28.48
-30.39
-31.80
-32.75
-33.44
-34.07
-34.86
-35.86
-37.00
-38.01
-38.52
-38.17
-36.70
-34.09
-30.49
-26.18
-21.47
-16.66
-12.08
-8.04
-4.85
-2.72
-1.67
-1.59
-2.26
-3.47
-4.99
-6.69
-8.38
-9.93
-11.10
-11.71
-11.72
-11.17
-10.31
-9.35
-8.56
-8.03
-7.83
-7.86
-8.02
-8.19
-8.30
-8.43
-8.67
-9.13
-9.82
-10.67
-11.51
-12.15
-12.46
-12.38
-12.02
-11.57
-11.33
-11.52
-12.20
-13.18
-14.05
-14.37
-13.71
-11.98
-9.31
-6.01
-2.38
1.31
4.82
7.85
10.02
11.06
10.89
9.79
8.32
7.06
6.43
6.47
6.96
7.61
8.22
8.76
9.34
10.08
10.96
11.89
12.70
13.30
13.66
13.79
13.70
13.38
12.77
11.74
10.27
8.37
6.21
3.97
1.80
-0.28
-2.40
-4.69
-7.31
-10.12
-12.84
-15.03
-16.28
-16.39
-15.26
-13.03
-9.86
-6.01
-1.74
2.73
7.04
10.97
14.22
16.67
18.18
18.82
18.65
17.82
16.54
14.99
13.38
11.88
10.71
9.97
9.70
9.83
10.17
10.49
10.58
10.36
9.81
8.99
7.97
6.84
5.64
4.41
3.16
1.86
0.44
-1.17
-3.05
-5.17
-7.48
-9.89
-12.28
-14.61
-16.89
-19.19
-21.51
-23.76
-25.67
-26.89
-27.01
-25.74
-22.97
-18.92
-14.02
-8.87
-4.08
-0.09
2.93
4.98
6.25
6.90
7.08
6.85
6.28
5.49
4.65
3.99
3.67
3.76
4.19
4.86
5.68
6.58
7.53
8.48
9.35
10.08
10.60
10.88
10.92
10.72
10.32
9.67
8.76
7.56
6.02
4.19
2.13
-0.09
-2.31
-4.47
-6.50
-8.39
-10.19
-12.02
-14.01
-16.21
-18.61
-21.05
-23.22
-24.74
-25.21
-24.33
-22.00
-18.39
-13.84
-8.83
-3.84
0.75
4.64
7.70
9.90
11.26
11.91
12.02
11.80
11.45
11.17
11.06
11.14
11.35
11.63
11.97
12.41
13.04
13.92
15.09
16.43
17.70
18.62
18.99
18.70
17.84
16.56
15.07
13.51
11.95
10.41
8.85
7.28
5.72
4.22
2.87
1.74
0.87
0.26
-0.24
-0.81
-1.73
-3.16
-5.08
-7.16
-8.84
-9.50
-8.69
-6.30
-2.68
1.55
5.66
9.11
11.64
13.29
14.31
14.89
15.20
15.22
14.95
14.37
13.58
12.71
11.83
11.02
10.27
9.59
9.04
8.76
8.84
9.31
9.97
10.49
10.48
9.71
8.21
6.22
4.09
2.07
0.26
-1.47
-3.34
-5.52
-7.99
-10.60
-13.08
-15.20
-16.77
-17.76
-18.25
-18.48
-18.71
-19.33
-20.60
-22.61
-25.25
-28.10
-30.61
-32.17
-32.30
-30.75
-27.56
-22.97
-17.41
-11.38
-5.47
-0.20
3.98
6.84
8.36
8.71
8.27
7.40
6.42
5.48
4.57
3.66
2.68
1.62
0.53
-0.49
-1.40
-2.13
-2.75
-3.36
-4.10
-5.09
-6.43
-8.13
-10.11
-12.31
-14.60
-16.94
-19.36
-21.97
-24.90
-28.26
-32.07
-36.18
-40.37
-44.33
-47.83
-50.81
-53.39
-55.86
-58.56
-61.75
-65.58
-69.92
-74.32
-77.98
-79.84
-78.75
-73.81
-64.59
-51.43
-35.47
-18.30
-1.64
13.17
25.35
34.72
41.51
46.15
49.13
50.84
51.58
51.63
51.19
50.49
49.71
48.94
48.16
47.24
45.95
44.07
41.44
38.05
34.06
29.75
25.38
21.11
16.89
12.54
7.81
2.52
-3.40
-9.82
-16.47
-23.05
-29.31
-35.05
-40.24
-44.87
-49.11
-53.35
-58.04
-63.56
-69.88
-76.24
-81.18
-82.86
-79.62
-70.68
-56.47
-38.54
-19.04
-0.09
16.80
30.93
42.26
51.10
57.74
62.36
65.07
66.05
65.61
64.25
62.53
60.89
59.59
58.64
57.78
56.72
55.16
52.92
50.03
46.65
42.99
39.23
35.46
31.71
27.89
23.92
19.71
15.13
10.13
4.70
-1.11
-7.16
-13.23
-19.16
-24.88
-30.44
-36.02
-41.87
-48.24
-55.38
-63.13
-70.89
-77.35
-80.70
-79.15
-71.59
-58.13
-40.20
-20.22
-0.71
16.32
29.88
39.93
46.94
51.52
54.15
55.14
54.78
53.45
51.52
49.30
46.96
44.53
41.99
39.32
36.61
33.94
31.44
29.06
26.67
24.03
20.82
16.94
12.44
7.58
2.66
-2.05
-6.55
-11.05
-15.85
-21.20
-27.05
-33.10
-38.93
-44.24
-48.95
-53.32
-57.73
-62.63
-68.33
-74.85
-81.66
-87.63
-91.13
-90.38
-84.06
-71.87
-54.74
-34.74
-14.36
4.15
19.39
30.93
39.07
44.44
47.65
49.18
49.36
48.56
47.20
45.70
44.38
43.37
42.64
42.03
41.40
40.72
40.03
39.33
38.63
37.75
36.51
34.73
32.36
29.48
26.23
22.75
19.08
15.21
11.06
6.65
1.98
-2.84
-7.71
-12.50
-17.10
-21.56
-26.09
-31.14
-37.19
-44.48
-52.71
-60.79
-66.88
-68.97
-65.54
-56.17
-41.89
-24.73
-7.13
8.80
21.82
31.58
38.41
42.84
45.32
46.11
45.44
43.57
40.94
38.05
35.41
33.33
31.94
31.15
30.78
30.70
30.77
30.97
31.25
31.46
31.39
30.75
29.27
26.71
23.03
18.26
12.62
6.47
0.18
-5.90
-11.52
-16.61
-21.32
-25.92
-30.73
-36.09
-42.22
-49.33
-57.39
-65.96
-73.94
-79.73
-81.42
-77.50
-67.43
-52.05
-33.44
-14.19
3.33
17.67
28.35
35.70
40.28
42.60
42.94
41.53
38.79
35.38
32.01
29.30
27.54
26.69
26.43
26.49
26.66
26.95
27.50
28.40
29.60
30.82
31.57
31.28
29.55
26.29
21.81
16.77
11.90
7.79
4.58
1.94
-0.73
-4.08
-8.45
-13.73
-19.45
-25.03
-30.01
-34.33
-38.23
-42.21
-46.82
-52.44
-59.08
-66.25
-72.82
-77.18
-77.57
-72.69
-62.16
-46.89
-28.80
-10.28
6.53
20.29
30.58
37.61
41.91
44.03
44.40
43.40
41.46
39.07
36.82
35.19
34.57
35.12
36.77
39.21
42.05
44.90
47.49
49.71
51.56
53.01
53.92
54.00
52.88
50.34
46.45
41.60
36.44
31.64
27.62
24.50
22.12
20.15
18.37
16.77
15.56
15.16
15.93
18.09
21.61
26.24
31.59
37.29
43.06
48.88
55.07
62.30
71.53
83.76
99.74
119.65
142.91
168.23
193.84
217.79
238.30
253.81
263.05
265.00
259.02
245.05
223.80
196.80
166.10
133.60
100.30
66.04
29.52
-10.89
-56.23
-106.05
-158.01
-208.13
-251.58
-283.88
-301.76
-303.79
-290.48
-264.01
-227.88
-186.50
-144.54
-106.17
-74.28
-49.99
-32.72
-20.77
-12.38
-6.45
-2.64
-0.68
0.62
3.68
11.34
25.25
44.67
66.24
85.20
97.25
100.48
95.81
86.19
75.04
64.71
55.91
48.06
40.42
32.80
25.61
19.10
12.68
5.03
-5.21
-18.33
-32.82
-45.91
-54.86
-58.57
-58.40
-57.48
-58.86
-63.86
-71.51
-79.41
-85.41
-88.90
-90.94
-93.28
-96.91
-101.20
-104.21
-103.61
-97.79
-86.44
-70.45
-51.23
-30.17
-8.36
13.45
35.04
57.19
82.02
112.50
150.98
197.12
246.06
288.64
313.80
312.53
281.64
225.38
153.80
79.14
11.42
-44.48
-89.10
-126.31
-160.40
-193.49
-224.62
-250.50
-267.02
-271.16
-262.38
-242.78
-216.34
-187.46
-159.39
-133.45
-109.21
-85.44
-61.47
-38.08
-17.35
-1.79
6.96
9.08
6.73
3.41
3.32
10.76
29.56
62.21
108.10
162.11
214.70
254.08
269.98
257.60
219.64
165.17
106.24
53.29
11.99
-17.61
-39.55
-59.51
-82.15
-109.62
-140.90
-171.82
-196.16
-207.55
-201.85
-179.27
-144.75
-106.46
-72.79
-49.82
-39.79
-41.64
-52.65
-69.86
-90.78
-112.84
-132.69
-146.25
-150.19
-143.74
-129.81
-114.43
-104.08
-102.56
-108.96
-117.77
-121.36
-113.66
-92.98
-62.78
-29.99
-1.62
18.17
29.39
35.49
40.99
49.32
61.51
76.48
92.00
105.91
116.66
123.35
125.58
123.22
116.43
105.78
92.11
76.23
58.64
39.55
19.00
-2.54
-24.17
-44.66
-62.80
-77.69
-88.78
-95.62
-97.67
-94.34
-85.27
-70.94
-52.88
-33.61
-16.09
-2.78
5.16
8.14
7.82
6.20
4.86
4.42
4.64
4.88
4.74
4.25
3.97
4.49
6.10
8.49
10.90
12.44
12.46
10.81
7.82
4.12
0.34
-3.13
-6.28
-9.43
-12.98
-17.17
-21.80
-26.33
-30.09
-32.72
-34.44
-35.92
-37.83
-40.42
-43.18
-45.05
-44.85
-41.75
-35.58
-26.66
-15.70
-3.59
8.63
19.94
29.35
36.25
40.67
43.24
45.00
46.99
49.70
53.00
56.27
58.65
59.41
58.17
54.91
49.99
44.09
38.11
32.89
28.90
25.98
23.54
21.15
19.02
18.27
20.28
25.73
33.78
42.10
48.04
49.98
48.16
44.36
40.67
38.28
36.76
34.73
30.67
24.02
15.31
5.90
-2.69
-9.21
-12.83
-13.34
-11.03
-6.75
-1.59
3.36
7.38
10.07
11.29
10.84
8.43
3.97
-2.27
-9.51
-16.62
-22.60
-26.86
-29.34
-30.48
-31.05
-31.86
-33.61
-36.70
-41.10
-46.34
-51.61
-56.05
-59.01
-60.37
-60.49
-60.06
-59.92
-60.57
-62.17
-64.50
-67.06
-69.40
-71.17
-72.18
-72.39
-71.82
-70.49
-68.42
-65.64
-62.18
-58.06
-53.27
-47.71
-41.19
-33.64
-25.18
-16.18
-7.17
1.40
9.30
16.67
23.85
31.25
39.09
47.33
55.61
63.33
69.78
74.30
76.35
75.67
72.28
66.52
59.00
50.48
41.69
33.34
25.98
20.03
15.69
12.93
11.42
10.70
10.33
9.97
9.57
9.20
8.93
8.64
8.08
6.92
4.96
2.22
-1.04
-4.39
-7.43
-9.83
-11.44
-12.21
-12.26
-11.73
-10.81
-9.65
-8.24
-6.54
-4.41
-1.79
1.32
4.76
8.33
11.90
15.39
18.76
21.99
25.02
27.73
30.03
31.82
32.95
33.25
32.43
30.08
26.02
20.40
13.89
7.46
1.82
-3.29
-9.31
-18.51
-32.96
-53.38
-78.80
-107.14
-136.44
-165.90
-195.98
-227.57
-260.43
-292.38
-319.55
-337.91
-344.75
-339.41
-322.92
-296.84
-262.24
-219.63
-169.66
-114.33
-57.44
-3.96
41.52
76.46
101.09
117.52
128.09
133.97
134.80
129.87
119.98
108.55
100.82
101.78
113.38
133.30
155.88
174.95
186.75
191.42
192.28
193.26
196.55
201.47
205.15
204.72
199.30
190.82
182.96
179.11
180.12
183.57
184.91
179.58
165.29
143.08
116.62
90.43
67.85
50.18
37.04
27.46
20.91
17.48
17.36
20.04
24.10
27.53
28.69
27.04
23.27
18.86
15.24
13.15
12.40
12.11
11.24
9.01
5.20
0.10
-5.72
-11.71
-17.60
-23.54
-29.95
-37.29
-45.93
-56.02
-67.53
-80.20
-93.51
-106.48
-117.76
-125.87
-129.60
-128.46
-122.89
-114.08
-103.68
-93.35
-84.48
-77.94
-73.97
-72.02
-70.84
-68.67
-63.94
-55.73
-44.27
-30.91
-17.75
-7.10
-0.86
-0.05
-4.47
-12.75
-22.60
-31.29
-36.35
-36.13
-30.13
-18.98
-4.15
12.41
28.71
42.89
53.52
59.92
62.32
61.90
60.46
59.76
60.86
63.76
67.50
70.69
72.09
71.28
68.50
64.58
60.40
56.47
52.79
48.95
44.34
38.35
30.62
21.02
9.74
-2.64
-15.39
-27.84
-39.67
-50.99
-62.20
-73.64
-85.29
-96.72
-107.11
-115.45
-120.70
-121.79
-117.88
-108.69
-94.98
-78.78
-63.00
-50.53
-43.32
-41.94
-45.87
-54.15
-65.88
-80.41
-97.21
-115.56
-134.39
-152.40
-168.15
-180.07
-186.45
-185.15
-174.29
-153.20
-123.58
-90.05
-59.20
-37.50
-28.87
-33.21
-46.45
-62.09
-73.58
-76.29
-68.27
-49.80
-22.44
11.52
49.01
85.92
117.63
140.04
151.06
150.99
142.13
127.37
109.28
90.35
73.93
64.65
67.05
83.12
109.86
139.35
161.52
168.72
159.39
138.50
114.81
96.04
85.40
80.36
74.77
62.51
40.76
11.03
-21.93
-52.16
-75.01
-87.96
-90.78
-84.62
-71.08
-52.08
-30.32
-9.20
8.48
22.02
33.82
48.26
68.65
94.08
118.46
133.29
132.18
115.11
89.03
64.98
52.67
56.46
74.38
100.11
126.57
148.13
161.01
162.33
149.75
121.92
79.86
28.34
-24.62
-69.40
-98.08
-107.39
-99.61
-81.42
-61.07
-45.30
-37.20
-35.94
-38.11
-39.93
-39.23
-36.36
-34.23
-36.74
-46.97
-65.41
-89.48
-114.04
-133.71
-145.15
-148.28
-146.53
-144.94
-148.04
-158.02
-173.69
-190.87
-203.71
-206.48
-195.39
-170.04
-133.48
-91.32
-50.14
-15.46
9.01
21.60
22.57
13.73
-1.67
-19.15
-33.85
-42.18
-43.00
-38.29
-31.91
-27.62
-27.18
-29.77
-32.76
-33.25
-29.29
-20.13
-6.06
11.96
32.19
51.91
67.81
77.16
79.09
75.48
70.46
68.49
72.17
81.00
91.65
99.70
101.69
96.37
84.99
70.61
56.97
47.25
43.32
45.31
51.73
60.20
68.51
75.31
80.85
86.94
96.11
110.19
128.79
148.69
164.57
170.92
164.32
145.19
117.84
89.10
65.94
53.19
52.40
62.08
78.73
98.15
116.58
131.15
140.29
143.81
142.87
139.71
137.17
137.93
143.76
154.91
169.67
184.63
195.41
197.74
188.61
167.09
134.57
94.45
51.44
10.50
-24.23
-50.43
-68.45
-81.33
-93.77
-110.09
-132.24
-158.56
-184.02
-201.83
-205.72
-191.91
-160.00
-113.24
-57.84
-2.26
44.28
73.67
81.01
66.29
34.31
-6.66
-47.74
-82.08
-106.39
-120.69
-127.08
-128.15
-125.82
-121.26
-115.13
-108.13
-101.14
-94.93
-89.55
-84.23
-77.72
-69.02
-58.31
-47.11
-37.91
-32.95
-33.21
-37.97
-45.11
-52.12
-56.96
-58.67
-57.34
-53.73
-48.74
-43.07
-37.25
-31.78
-27.06
-23.50
-21.49
-21.20
-22.50
-24.83
-27.14
-28.18
-26.79
-22.20
-14.18
-3.04
10.72
26.64
44.54
64.47
86.41
109.84
133.37
154.84
171.85
182.55
186.20
183.17
174.46
161.13
143.98
123.82
102.07
81.12
63.86
52.69
48.22
48.81
51.20
51.87
48.44
40.43
28.86
15.25
0.73
-14.39
-30.27
-46.78
-63.23
-78.41
-91.07
-100.51
-106.71
-110.10
-111.16
-110.21
-107.46
-103.31
-98.78
-95.34
-94.43
-96.52
-100.85
-105.35
-107.53
-105.56
-98.96
-88.78
-76.61
-63.60
-49.88
-34.73
-17.56
1.48
21.02
38.97
53.14
62.07
65.14
62.55
54.98
43.67
30.34
17.13
6.35
-0.33
-2.19
0.19
5.27
11.45
17.54
22.96
27.46
31.06
33.60
35.02
35.43
35.22
35.01
35.25
35.91
36.33
35.50
32.57
27.19
19.68
10.90
1.81
-6.72
-14.18
-20.32
-25.06
-28.53
-31.00
-32.87
-34.45
-35.90
-37.15
-37.92
-37.98
-37.31
-36.16
-34.94
-33.91
-33.03
-32.07
-30.80
-29.28
-28.01
-27.67
-28.80
-31.39
-34.81
-37.99
-39.97
-40.30
-39.25
-37.63
-36.37
-36.01
-36.55
-37.50
-38.17
-37.94
-36.55
-34.14
-31.10
-27.82
-24.58
-21.49
-18.55
-15.69
-12.96
-10.45
-8.35
-6.80
-5.88
-5.48
-5.34
-5.21
-4.83
-4.18
-3.27
-2.17
-0.92
0.51
2.04
3.38
4.08
3.65
1.76
-1.40
-5.14
-8.46
-10.44
-10.56
-8.85
-5.86
-2.46
0.46
2.22
2.54
1.51
-0.44
-2.79
-5.19
-7.64
-10.46
-14.17
-19.14
-25.31
-32.18
-39.00
-45.21
-50.80
-56.40
-63.15
-72.37
-85.13
-101.90
-122.23
-144.46
-165.68
-182.11
-190.10
-187.49
-174.74
-154.95
-132.89
-112.87
-96.93
-84.14
-71.47
-55.68
-35.27
-11.21
13.63
35.98
53.67
66.21
74.47
79.62
82.35
82.43
79.26
72.63
63.26
52.93
43.73
37.24
33.76
32.39
31.53
29.89
27.06
23.60
20.45
18.19
16.61
14.75
11.42
5.74
-2.46
-12.53
-23.12
-32.51
-39.21
-42.25
-41.79
-39.15
-36.56
-36.62
-41.42
-51.97
-67.84
-87.23
-107.15
-124.14
-134.90
-137.23
-130.78
-117.39
-100.64
-84.62
-72.59
-65.82
-63.60
-63.93
-64.75
-65.03
-64.78
-64.34
-63.29
-60.09
-52.47
-38.73
-18.83
5.36
30.49
53.18
71.25
84.23
93.09
99.25
103.80
107.18
109.05
108.52
104.50
96.12
83.09
66.23
47.84
31.36
20.83
19.71
29.65
49.87
77.10
106.56
133.35
153.68
165.38
167.47
159.69
141.96
115.00
81.24
45.49
14.36
-5.95
-12.25
-5.59
9.74
29.03
49.49
70.60
92.27
112.58
127.14
131.36
124.17
110.21
98.39
97.47
111.09
135.82
163.46
185.55
197.36
198.67
192.07
180.32
165.42
149.05
133.56
121.87
115.62
113.47
110.77
101.46
81.36
50.45
12.89
-25.15
-58.41
-84.53
-104.22
-120.02
-134.21
-147.08
-156.37
-157.83
-146.91
-120.85
-80.28
-29.46
24.78
75.36
117.04
147.58
167.44
178.75
184.00
185.34
184.23
181.20
175.54
165.26
147.73
120.68
83.20
36.06
-18.46
-77.27
-136.83
-193.24
-241.71
-276.44
-291.84
-284.38
-254.53
-206.89
-148.66
-87.28
-28.65
23.28
65.91
97.33
116.31
123.07
119.94
111.13
101.35
94.10
90.59
89.94
90.35
90.45
89.85
88.59
86.59
83.22
77.87
70.61
62.49
55.20
50.22
47.99
47.80
48.32
48.43
48.04
47.90
48.80
50.81
52.92
53.42
50.97
45.34
37.35
28.47
19.99
12.54
6.32
1.48
-1.76
-3.23
-3.17
-2.44
-2.32
-3.92
-7.78
-13.73
-20.99
-28.49
-35.07
-39.75
-41.78
-40.80
-37.13
-31.73
-25.95
-21.11
-18.09
-17.13
-18.13
-21.06
-26.01
-33.17
-42.41
-52.84
-63.01
-71.41
-77.02
-79.82
-80.66
-80.73
-80.98
-81.73
-82.63
-83.17
-83.04
-82.40
-81.63
-81.09
-80.92
-80.92
-80.65
-79.57
-77.19
-73.21
-67.78
-61.37
-54.73
-48.66
-43.87
-40.71
-39.23
-39.04
-39.46
-39.63
-38.79
-36.44
-32.50
-27.33
-21.56
-16.04
-11.55
-8.81
-8.20
-9.80
-13.17
-17.29
-20.63
-21.72
-19.62
-14.40
-7.19
0.25
6.19
9.35
9.18
5.66
-0.90
-9.97
-20.66
-31.60
-40.95
-46.76
-47.55
-42.76
-33.13
-20.40
-6.69
6.05
16.59
24.71
31.04
36.49
41.73
46.60
50.23
51.51
49.77
45.29
39.41
34.00
30.76
30.61
33.54
38.82
45.40
52.14
57.86
61.53
62.49
60.91
58.12
56.28
57.46
62.49
70.20
77.65
81.25
78.16
67.18
48.59
23.30
-8.06
-45.36
-88.31
-135.54
-184.12
-229.93
-268.70
-297.10
-313.43
-317.64
-310.88
-295.08
-272.49
-245.40
-215.94
-185.99
-157.05
-130.24
-106.41
-86.13
-69.88
-57.84
-49.62
-44.22
-40.11
-35.61
-29.42
-20.90
-10.18
1.96
14.44
26.31
37.09
46.78
55.68
64.15
72.45
80.62
88.42
95.16
99.70
100.62
96.56
86.71
71.12
50.73
27.27
2.79
-20.96
-43.02
-63.61
-83.94
-105.51
-128.96
-152.97
-174.04
-187.18
-187.80
-173.53
-145.33
-107.11
-64.10
-21.16
18.44
53.22
83.11
108.65
130.61
149.70
166.23
179.88
189.46
193.24
189.95
180.03
166.11
152.50
143.58
142.24
148.64
160.36
173.34
183.56
188.47
187.99
184.79
183.40
188.29
201.47
220.93
240.58
252.15
248.28
225.56
186.29
137.90
90.64
54.24
34.91
33.57
46.04
64.76
81.49
90.14
88.38
77.75
62.54
47.65
36.69
31.05
30.22
32.51
36.09
39.50
41.85
43.02
43.53
44.32
46.38
50.39
56.13
62.42
67.13
67.80
62.72
51.80
37.29
23.33
14.26
12.49
17.10
24.07
28.18
25.62
15.25
-1.44
-21.91
-44.10
-66.78
-88.61
-107.32
-119.66
-122.72
-115.83
-101.45
-84.29
-69.29
-59.05
-52.59
-45.97
-34.42
-14.80
12.43
43.00
70.03
86.33
87.07
71.69
44.26
12.02
-17.20
-38.13
-49.72
-54.76
-57.73
-62.03
-68.39
-74.97
-79.43
-81.06
-81.92
-85.72
-95.46
-111.46
-131.02
-150.12
-165.66
-176.58
-183.20
-185.91
-184.09
-176.61
-163.27
-145.83
-127.56
-111.64
-99.56
-90.64
-83.08
-75.57
-68.28
-62.60
-59.79
-59.90
-61.54
-62.67
-61.63
-57.63
-50.76
-41.31
-29.49
-15.76
-1.51
10.67
17.60
17.11
9.48
-2.40
-14.05
-21.75
-24.36
-23.69
-23.35
-26.50
-34.24
-45.40
-57.78
-69.48
-79.74
-88.62
-96.05
-101.29
-103.17
-100.92
-94.77
-86.07
-76.76
-68.61
-62.69
-59.15
-57.42
-56.79
-56.74
-57.30
-58.98
-62.43
-67.98
-75.20
-82.77
-88.81
-91.39
-89.11
-81.53
-69.19
-53.47
-36.20
-19.15
-3.71
9.23
19.33
26.68
31.56
34.45
35.91
36.58
37.18
38.33
40.43
43.53
47.32
51.34
55.20
58.71
61.88
64.73
67.12
68.72
69.11
67.91
64.99
60.59
55.23
49.51
43.95
38.82
34.07
29.46
24.60
19.13
12.84
5.79
-1.59
-8.44
-13.56
-15.71
-13.88
-7.73
2.22
14.70
28.03
40.60
51.25
59.39
64.94
68.02
68.83
67.51
64.29
59.53
53.88
48.14
43.10
39.32
36.97
35.87
35.55
35.51
35.32
34.73
33.72
32.35
30.69
28.72
26.37
23.51
20.02
15.88
11.15
5.97
0.53
-5.01
-10.49
-15.72
-20.50
-24.73
-28.45
-31.94
-35.69
-40.21
-45.77
-52.11
-58.33
-62.97
-64.45
-61.59
-54.07
-42.56
-28.49
-13.64
0.47
12.88
23.20
31.46
37.81
42.28
44.83
45.53
44.54
42.35
39.55
36.71
34.24
32.34
30.99
30.06
29.47
29.22
29.40
30.13
31.32
32.97
34.81
36.33
36.56
35.05
31.87
27.59
22.77
17.74
12.83
8.03
3.21
-2.11
-7.86
-13.55
-18.44
-21.91
-23.46
-21.88
-15.98
-4.96
10.30
28.90
49.64
71.29
92.31
111.27
129.07
146.61
164.09
178.16
187.19
191.06
191.37
189.63
187.06
188.39
197.17
214.41
233.16
249.47
261.92
272.13
281.05
288.99
302.09
325.01
358.84
392.40
419.33
437.32
448.91
455.84
459.49
469.39
493.44
534.73
579.53
619.39
650.41
675.20
696.06
663.86
548.75
347.29
152.35
0.12
-98.87
-168.53
-218.75
-256.33
-286.10
-303.68
-305.82
-293.40
-282.67
-282.28
-294.01
-311.72
-329.92
-344.75
-348.73
-338.34
-315.22
-293.49
-281.05
-279.84
-285.21
-293.01
-300.34
-302.29
-296.38
-283.10
-270.43
-262.37
-259.52
-258.95
-258.62
-257.65
-254.11
-246.58
-234.09
-218.91
-202.07
-184.59
-167.46
-152.71
-141.90
-134.10
-126.70
-116.66
-103.23
-87.12
-70.29
-54.68
-41.49
-30.48
-20.52
-10.53
-0.43
8.71
15.30
18.17
17.27
13.82
9.94
7.86
9.16
14.08
21.51
29.38
35.52
38.43
37.67
33.77
27.66
20.37
12.66
5.00
-2.45
-9.93
-17.93
-27.06
-37.64
-49.33
-61.23
-72.10
-80.95
-87.49
-92.28
-96.59
-101.91
-109.49
-119.94
-132.99
-147.46
-161.49
-172.78
-179.00
-178.33
-169.83
-153.71
-131.32
-104.81
-76.62
-48.95
-23.41
-0.97
17.89
32.80
43.41
49.31
50.20
46.14
37.71
25.98
12.26
-2.05
-15.74
-27.75
-37.25
-43.47
-45.72
-43.37
-36.08
-23.82
-6.89
14.01
37.86
63.25
88.51
111.90
131.91
147.58
158.75
166.00
170.39
173.26
175.77
178.80
182.87
187.94
193.34
197.94
200.53
200.52
198.43
195.42
192.54
189.55
184.22
172.66
150.85
116.49
70.40
16.59
-39.25
-91.50
-136.18
-171.45
-197.14
-213.88
-222.50
-223.79
-218.47
-207.22
-190.58
-168.96
-142.92
-113.27
-81.39
-49.24
-18.98
7.59
29.36
45.98
57.48
64.03
65.97
63.69
57.52
47.63
33.80
15.46
-7.81
-35.84
-67.42
-100.45
-132.63
-162.10
-187.97
-210.07
-228.14
-241.38
-248.52
-248.79
-242.84
-233.12
-223.35
-217.13
-216.64
-222.10
-231.92
-243.41
-253.34
-258.21
-254.43
-238.83
-209.60
-167.21
-114.85
-57.95
-2.72
45.49
83.36
109.88
125.89
133.12
133.33
127.82
117.47
103.16
86.01
67.37
48.68
31.03
15.05
1.01
-11.01
-20.81
-28.04
-32.51
-34.39
-34.36
-33.52
-32.97
-33.47
-35.39
-38.64
-42.95
-48.07
-53.69
-59.30
-64.07
-66.86
-66.41
-61.79
-52.73
-39.80
-24.36
-8.11
7.37
21.06
32.47
41.64
48.75
54.00
57.52
59.40
59.96
59.67
59.15
58.79
58.82
59.29
60.32
62.07
64.63
67.73
70.56
71.90
70.59
66.08
58.67
49.38
39.39
29.57
20.19
11.06
1.96
-7.04
-15.50
-22.86
-28.66
-32.79
-35.54
-37.36
-38.84
-40.53
-42.82
-45.86
-49.55
-53.33
-56.23
-57.01
-54.47
-47.94
-37.51
-24.09
-9.22
5.45
18.51
29.03
36.60
41.24
43.33
43.48
42.47
41.00
39.60
38.48
37.58
36.69
35.64
34.36
32.99
31.78
30.94
30.62
30.79
31.28
31.85
32.24
32.21
31.59
30.30
28.28
25.48
21.85
17.41
12.28
6.71
1.01
-4.50
-9.67
-14.47
-18.99
-23.44
-28.09
-33.12
-38.57
-44.13
-49.05
-52.31
-52.79
-49.68
-42.89
-33.06
-21.42
-9.40
1.81
11.47
19.32
25.39
29.89
33.04
35.13
36.60
37.96
39.76
42.39
45.93
50.12
54.48
58.36
61.25
62.76
62.80
61.49
59.12
56.06
52.63
49.00
45.14
40.90
36.01
30.35
24.04
17.39
10.84
4.66
-1.13
-6.78
-12.72
-19.34
-26.77
-34.83
-43.04
-50.59
-56.50
-59.76
-59.57
-55.62
-48.29
-38.50
-27.55
-16.79
-7.20
0.68
6.71
10.98
13.66
14.99
15.32
15.14
15.04
15.61
17.30
20.36
24.77
30.30
36.47
42.69
48.22
52.34
54.48
54.29
51.67
46.71
39.72
31.13
21.48
11.49
1.93
-6.40
-12.92
-17.38
-19.95
-21.20
-21.90
-22.76
-24.07
-25.58
-26.52
-25.97
-23.21
-18.08
-11.05
-3.12
4.53
10.97
15.70
18.75
20.51
21.41
21.72
21.40
20.26
18.23
15.60
12.88
10.78
9.93
10.65
12.94
16.54
21.07
26.28
32.02
38.04
44.01
49.62
54.57
58.74
62.15
64.78
66.73
67.93
67.92
66.10
62.38
57.09
50.99
45.13
40.07
36.69
35.77
37.64
42.40
50.68
62.77
78.13
95.23
110.65
121.92
127.57
127.18
121.80
114.51
108.53
106.03
107.27
109.17
109.44
106.36
98.59
86.16
71.61
58.34
49.66
47.74
51.08
59.02
70.93
85.86
92.47
83.48
57.60
21.04
-2.99
-9.27
-0.40
18.36
35.81
45.84
47.77
44.06
38.35
33.24
27.13
18.48
4.72
-17.95
-51.61
-93.89
-137.82
-173.64
-191.96
-188.46
-163.06
-122.21
-79.08
-48.89
-43.24
-65.97
-113.06
-174.56
-239.04
-291.63
-316.11
-303.65
-258.71
-196.12
-131.10
-73.06
-24.38
15.69
48.19
73.00
88.08
92.42
87.05
77.68
71.43
74.84
91.44
120.87
159.75
201.34
237.00
253.94
243.51
203.28
140.19
69.99
3.15
-53.25
-96.78
-129.11
-154.40
-170.62
-177.71
-175.98
-166.21
-150.35
-130.35
-109.28
-90.62
-76.74
-66.99
-59.12
-49.98
-37.68
-23.21
-9.13
1.43
6.32
5.50
1.19
-4.54
-10.16
-15.36
-20.95
-27.57
-35.42
-44.21
-53.18
-60.89
-66.00
-67.17
-63.78
-56.43
-46.69
-36.57
-27.82
-21.28
-16.67
-13.15
-9.73
-6.04
-2.58
-0.43
-0.67
-3.84
-9.66
-17.18
-25.35
-33.23
-40.36
-46.65
-52.36
-57.84
-63.53
-69.76
-76.55
-82.92
-86.91
-86.18
-79.06
-65.47
-46.96
-26.12
-5.53
12.81
28.54
42.60
56.24
69.95
82.90
93.31
99.19
98.92
91.48
77.54
59.29
39.61
21.08
5.31
-7.00
-16.04
-23.05
-30.40
-39.50
-49.56
-57.47
-58.45
-48.10
-23.66
14.58
66.09
122.50
170.81
200.01
206.36
193.28
166.44
131.35
92.79
55.30
23.35
1.75
-6.08
-2.41
9.35
23.40
33.98
37.52
33.57
24.12
12.83
3.17
-2.81
-4.55
-3.12
-0.13
4.55
9.11
10.67
6.60
-4.26
-21.10
-41.31
-61.82
-79.93
-94.87
-107.15
-117.45
-125.89
-131.93
-135.04
-135.02
-132.44
-128.14
-124.07
-121.93
-122.42
-125.19
-128.91
-131.82
-132.53
-130.51
-119.23
-96.46
-64.30
-27.67
8.72
42.95
75.50
106.88
136.47
162.62
182.45
194.16
198.74
197.87
193.08
184.97
172.99
156.53
135.97
112.39
88.45
67.60
52.64
44.70
44.79
51.45
62.17
74.40
85.37
92.69
94.31
88.74
75.68
56.47
33.76
11.14
-8.10
-22.54
-32.68
-40.24
-47.19
-54.65
-62.65
-70.65
-77.79
-83.45
-87.46
-90.00
-91.18
-90.86
-88.66
-84.30
-77.90
-70.00
-61.44
-53.03
-45.40
-38.80
-33.16
-28.27
-23.99
-20.42
-17.82
-16.45
-16.38
-17.47
-19.32
-21.49
-23.65
-25.65
-27.54
-29.46
-31.48
-33.51
-35.28
-36.34
-36.24
-34.66
-31.55
-27.12
-21.84
-16.25
-10.83
-5.88
-1.53
2.26
5.56
8.49
11.11
13.50
15.79
18.09
20.43
22.79
25.03
26.99
28.63
30.02
31.33
32.76
34.41
36.15
37.68
38.65
38.78
38.06
36.65
34.82
32.82
30.85
28.95
27.16
25.48
23.88
22.32
20.68
18.80
16.49
13.65
10.27
6.42
2.21
-2.26
-6.94
-11.81
-16.83
-21.79
-26.39
-30.14
-32.50
-33.02
-31.44
-27.74
-22.18
-15.19
-7.32
0.79
8.57
15.53
21.36
25.97
29.43
31.96
33.77
35.00
35.56
35.28
33.82
30.97
26.70
21.25
15.10
8.80
2.91
-2.17
-6.15
-8.98
-10.71
-11.60
-12.04
-12.54
-13.61
-15.56
-18.40
-21.84
-25.38
-28.53
-30.89
-32.29
-32.68
-32.18
-31.02
-29.44
-27.76
-26.29
-25.31
-24.97
-25.35
-26.28
-27.48
-28.56
-29.09
-28.69
-27.14
-24.43
-20.73
-16.40
-11.78
-7.18
-2.77
1.30
4.84
7.68
9.61
10.51
10.43
9.63
8.50
7.42
6.69
6.45
6.74
7.51
8.63
9.93
11.17
12.06
12.38
11.98
10.91
9.38
7.65
5.84
3.97
1.86
-0.67
-3.66
-6.93
-10.15
-12.94
-15.01
-16.32
-16.97
-17.21
-17.27
-17.36
-17.60
-18.06
-18.66
-19.15
-19.19
-18.34
-16.29
-12.96
-8.54
-3.51
1.53
5.97
9.32
11.35
12.04
11.68
10.71
9.67
8.93
8.71
8.99
9.62
10.36
10.91
10.99
10.34
8.94
7.05
5.31
4.55
5.43
8.06
11.87
15.68
18.13
18.22
15.54
10.35
3.40
-4.43
-12.26
-19.40
-25.31
-29.61
-32.13
-32.93
-32.39
-31.10
-29.79
-29.03
-29.04
-29.60
-30.03
-29.48
-27.19
-22.84
-16.63
-9.23
-1.46
5.94
12.48
17.99
22.41
25.74
27.87
28.70
28.21
26.58
24.19
21.50
18.93
16.68
14.75
13.02
11.31
9.55
7.77
6.00
4.26
2.60
1.03
-0.29
-1.08
-1.10
-0.15
1.67
3.99
6.19
7.71
8.18
7.48
5.87
3.78
1.78
0.29
-0.47
-0.60
-0.47
-0.57
-1.37
-3.06
-5.50
-8.21
-10.58
-11.97
-11.89
-10.08
-6.48
-1.34
4.90
11.51
17.73
22.70
25.78
26.59
25.17
21.96
17.75
13.54
10.20
8.35
8.14
9.22
10.79
11.85
11.46
9.00
4.38
-1.90
-8.89
-15.38
-20.25
-22.76
-22.71
-20.41
-16.57
-12.00
-7.43
-3.42
-0.35
1.53
2.05
1.09
-1.36
-5.24
-10.46
-16.96
-24.68
-33.44
-42.81
-51.96
-59.79
-65.10
-67.04
-65.34
-60.43
-53.25
-44.87
-36.20
-27.75
-19.73
-12.22
-5.35
0.67
5.53
9.02
11.14
12.07
12.14
11.71
11.06
10.42
10.03
10.17
11.15
13.24
16.48
20.57
24.89
28.67
31.24
32.29
31.88
30.38
28.20
25.69
22.94
19.89
16.32
12.00
6.75
0.55
-6.30
-13.19
-19.21
-23.32
-24.72
-23.07
-18.65
-12.17
-4.54
3.50
11.41
18.79
25.24
30.25
33.18
33.48
30.82
25.36
17.77
9.17
0.96
-5.53
-9.31
-9.95
-7.68
-3.23
2.39
8.30
13.88
18.73
22.68
25.55
27.20
27.54
26.56
24.35
20.98
16.43
10.65
3.65
-4.44
-13.34
-22.68
-32.26
-42.04
-52.18
-62.84
-73.87
-84.69
-94.31
-101.55
-105.36
-105.05
-100.35
-91.45
-78.88
-63.44
-46.15
-28.16
-10.65
5.37
19.25
30.79
40.20
47.84
54.09
59.12
62.94
65.51
66.82
66.98
66.24
64.89
63.28
61.69
60.29
59.08
57.90
56.51
54.71
52.42
49.72
46.72
43.50
39.98
35.98
31.37
26.20
20.73
15.35
10.31
5.71
1.47
-2.70
-7.14
-12.29
-18.46
-25.78
-33.92
-41.98
-48.57
-52.16
-51.63
-46.71
-38.04
-26.92
-14.90
-3.25
7.20
15.97
22.72
27.16
29.07
28.54
26.03
22.43
18.80
16.03
14.64
14.54
15.26
16.07
16.34
15.65
13.98
11.63
9.12
6.96
5.56
5.09
5.38
6.07
6.55
6.27
4.89
2.40
-0.83
-4.19
-7.09
-9.23
-10.72
-12.07
-13.98
-17.08
-21.73
-27.80
-34.69
-41.41
-46.72
-49.38
-48.47
-43.64
-35.22
-24.24
-12.08
-0.22
10.18
18.39
24.24
27.92
29.78
30.19
29.45
27.79
25.52
23.01
20.66
18.81
17.60
16.87
16.27
15.45
14.22
12.70
11.24
10.17
9.68
9.66
9.77
9.61
8.90
7.56
5.65
3.17
0.02
-4.01
-9.15
-15.38
-22.35
-29.47
-36.06
-41.55
-45.62
-48.06
-48.71
-47.37
-43.84
-38.10
-30.46
-21.54
-12.21
-3.31
4.51
10.96
16.01
19.90
22.90
25.19
26.79
27.54
27.21
25.62
22.79
18.95
14.60
10.39
6.98
4.91
4.49
5.66
8.03
10.90
13.44
14.90
14.79
12.99
9.78
5.67
1.23
-3.03
-6.81
-10.08
-13.02
-15.99
-19.46
-23.76
-29.04
-35.06
-41.08
-45.97
-48.45
-47.45
-42.49
-33.93
-22.78
-10.53
1.32
11.64
19.87
25.86
29.80
32.01
32.79
32.58
31.78
30.77
29.82
28.92
27.83
26.28
24.07
21.23
18.08
15.00
12.34
10.23
8.65
7.45
6.48
5.59
4.65
3.52
2.09
0.23
-2.05
-4.65
-7.40
-10.12
-12.69
-15.16
-17.67
-20.42
-23.61
-27.36
-31.67
-36.38
-41.02
-44.93
-47.21
-47.00
-43.66
-37.08
-27.72
-16.54
-4.75
6.52
16.49
24.74
31.27
36.25
39.85
42.19
43.27
43.08
41.72
39.41
36.51
33.39
30.36
27.56
25.03
22.76
20.78
19.11
17.85
16.99
16.44
16.00
15.50
14.78
13.76
12.42
10.71
8.57
5.93
2.78
-0.81
-4.60
-8.29
-11.60
-14.42
-16.83
-19.06
-21.45
-24.32
-27.78
-31.63
-35.32
-37.96
-38.58
-36.46
-31.34
-23.64
-14.25
-4.36
4.96
12.93
19.21
23.74
26.62
28.04
28.20
27.41
25.99
24.26
22.42
20.58
18.71
16.72
14.55
12.26
9.98
7.94
6.33
5.23
4.55
4.12
3.67
3.01
2.05
0.75
-0.82
-2.61
-4.62
-6.88
-9.40
-12.18
-15.13
-18.10
-20.97
-23.59
-25.92
-27.99
-29.97
-32.14
-34.83
-38.24
-42.31
-46.53
-50.01
-51.67
-50.61
-46.41
-39.33
-30.20
-20.12
-10.17
-1.12
6.65
13.06
18.19
22.13
24.86
26.32
26.49
25.52
23.72
21.54
19.37
17.46
15.85
14.36
12.77
11.01
9.16
7.51
6.35
5.82
5.81
5.97
5.85
5.06
3.49
1.27
-1.29
-3.85
-6.21
-8.36
-10.45
-12.71
-15.39
-18.71
-22.82
-27.68
-32.95
-37.98
-41.81
-43.40
-41.95
-37.18
-29.49
-19.81
-9.32
0.87
9.91
17.37
23.09
27.04
29.29
29.88
28.98
26.90
24.10
21.14
18.53
16.54
15.21
14.34
13.62
12.85
11.97
11.09
10.31
9.76
9.33
8.82
8.01
6.70
4.83
2.47
-0.22
-3.08
-5.94
-8.73
-11.43
-14.00
-16.47
-18.87
-21.35
-24.12
-27.48
-31.57
-36.21
-40.84
-44.40
-45.78
-44.03
-38.81
-30.40
-19.74
-8.02
3.57
14.14
23.16
30.37
35.74
39.34
41.27
41.71
40.92
39.19
36.85
34.18
31.36
28.57
25.94
23.66
21.94
20.96
20.75
21.17
21.94
22.72
23.19
23.18
22.60
21.44
19.75
17.59
15.06
12.27
9.31
6.27
3.19
0.07
-3.07
-6.21
-9.33
-12.39
-15.40
-18.49
-21.88
-25.79
-30.36
-35.46
-40.43
-44.29
-45.87
-44.24
-39.06
-30.75
-20.35
-9.16
1.62
11.16
19.07
25.21
29.59
32.19
32.98
32.02
29.56
26.07
22.18
18.46
15.31
12.80
10.75
8.94
7.29
5.92
5.15
5.25
6.21
7.75
9.31
10.36
10.57
9.96
8.80
7.46
6.22
5.06
3.75
1.95
-0.57
-3.76
-7.28
-10.70
-13.62
-15.85
-17.56
-19.05
-20.72
-22.80
-25.39
-28.42
-31.76
-35.13
-38.11
-40.13
-40.47
-38.50
-33.86
-26.65
-17.52
-7.46
2.41
11.11
18.03
23.02
26.23
27.98
28.58
28.26
27.20
25.54
23.51
21.31
19.14
17.11
15.20
13.37
11.63
10.07
8.87
8.19
8.06
8.34
8.72
8.83
8.35
7.18
5.42
3.30
1.12
-0.94
-2.80
-4.55
-6.38
-8.46
-10.86
-13.56
-16.36
-19.06
-21.53
-23.71
-25.70
-27.76
-30.22
-33.36
-37.36
-42.01
-46.69
-50.40
-52.01
-50.60
-45.79
-37.90
-27.83
-16.83
-6.08
3.53
11.48
17.61
21.92
24.55
25.66
25.46
24.20
22.24
19.96
17.76
15.99
14.82
14.22
14.03
14.04
14.14
14.36
14.84
15.63
16.62
17.45
17.67
16.95
15.25
12.82
10.12
7.62
5.59
4.06
2.77
1.39
-0.44
-2.89
-5.95
-9.47
-13.22
-16.98
-20.60
-24.00
-27.19
-30.24
-33.34
-36.72
-40.58
-44.94
-49.40
-53.14
-55.08
-54.19
-49.84
-42.14
-31.91
-20.36
-8.85
1.61
10.45
17.55
23.00
26.89
29.21
29.91
29.04
26.92
24.06
21.10
18.62
16.90
15.90
15.41
15.18
15.06
15.12
15.51
16.32
17.44
18.56
19.25
19.20
18.33
16.78
14.84
12.76
10.63
8.32
5.54
2.03
-2.37
-7.57
-13.26
-18.98
-24.24
-28.66
-32.08
-34.65
-36.72
-38.78
-41.28
-44.48
-48.31
-52.28
-55.55
-57.02
-55.63
-50.73
-42.30
-31.03
-18.13
-4.94
7.40
18.16
27.00
33.85
38.75
41.77
43.02
42.73
41.23
38.89
36.06
32.95
29.74
26.61
23.76
21.45
19.97
19.42
19.79
20.82
22.13
23.25
23.75
23.42
22.28
20.54
18.50
16.47
14.59
12.77
10.77
8.28
5.09
1.15
-3.40
-8.29
-13.21
-17.89
-22.17
-26.09
-29.82
-33.64
-37.78
-42.21
-46.48
-49.68
-50.66
-48.47
-42.70
-33.79
-22.80
-11.14
-0.03
9.75
17.95
24.56
29.62
33.08
34.74
34.52
32.57
29.32
25.41
21.46
17.94
15.08
12.92
11.41
10.51
10.22
10.50
11.24
12.19
13.03
13.43
13.18
12.18
10.53
8.32
5.65
2.57
-0.87
-4.60
-8.54
-12.63
-16.93
-21.60
-26.80
-32.50
-38.32
-43.41
-46.68
-47.07
-43.95
-37.37
-28.02
-17.01
-5.53
5.44
15.26
23.67
30.57
35.96
39.76
41.90
42.35
41.18
38.65
35.11
31.01
26.77
22.71
19.05
15.88
13.18
10.86
8.85
6.97
5.15
3.36
1.56
-0.24
-2.05
-3.90
-5.78
-7.67
-9.61
-11.65
-14.00
-16.95
-20.77
-25.65
-31.42
-37.48
-42.81
-46.21
-46.60
-43.43
-36.80
-27.41
-16.45
-5.10
5.62
15.07
22.86
28.87
33.05
35.40
36.10
35.36
33.54
31.09
28.50
26.29
24.88
24.56
25.30
26.91
28.92
30.79
32.00
32.22
31.36
29.57
27.14
24.37
21.38
18.10
14.36
9.99
4.99
-0.41
-5.79
-10.79
-15.11
-18.62
-21.31
-23.26
-24.69
-25.96
-27.51
-29.66
-32.43
-35.38
-37.69
-38.47
-37.02
-33.16
-27.28
-20.12
-12.61
-5.51
0.72
5.97
10.34
14.08
17.30
20.02
22.14
23.46
23.96
23.80
23.35
23.01
23.10
23.73
24.89
26.45
28.23
30.04
31.58
32.40
31.98
29.91
26.15
21.18
15.84
11.11
7.76
6.00
5.51
5.56
5.37
4.39
2.44
-0.42
-4.04
-8.43
-13.79
-20.38
-28.20
-36.72
-44.79
-50.88
-53.46
-51.55
-45.06
-34.85
-22.39
-9.21
3.47
14.93
24.87
33.18
39.73
44.26
46.60
46.79
45.26
42.73
40.03
37.83
36.56
36.38
37.20
38.73
40.50
41.90
42.24
40.88
37.37
31.64
24.00
15.09
5.71
-3.30
-11.19
-17.31
-21.18
-22.56
-21.69
-19.23
-16.22
-13.80
-12.83
-13.63
-15.84
-18.66
-21.13
-22.58
-22.83
-22.24
-21.59
-21.88
-23.94
-28.12
-34.03
-40.47
-45.69
-47.86
-45.65
-38.74
-27.87
-14.64
-0.91
11.73
22.21
30.11
35.48
38.59
39.79
39.53
38.21
36.17
33.71
30.96
27.97
24.75
21.37
17.97
14.81
12.10
9.98
8.53
7.75
7.57
7.82
8.15
8.10
7.24
5.27
2.27
-1.32
-4.87
-7.80
-9.81
-11.01
-11.78
-12.51
-13.47
-14.76
-16.37
-18.44
-21.25
-25.05
-29.91
-35.43
-40.76
-44.83
-46.63
-45.55
-41.59
-35.27
-27.35
-18.70
-10.00
-1.69
5.90
12.51
17.83
21.45
23.07
22.67
20.54
17.32
13.86
10.88
8.80
7.69
7.21
6.89
6.27
5.05
3.08
0.41
-2.79
-6.26
-9.60
-12.41
-14.26
-14.86
-14.16
-12.42
-10.20
-8.27
-7.40
-8.09
-10.41
-13.85
-17.43
-20.02
-20.66
-18.92
-14.97
-9.54
-3.53
2.20
7.16
11.19
14.40
16.99
19.12
20.90
22.34
23.46
24.18
24.44
24.12
23.10
21.35
19.00
16.23
13.36
10.73
8.57
6.94
5.71
4.64
3.47
2.11
0.60
-0.83
-1.94
-2.61
-3.03
-3.60
-4.92
-7.57
-11.95
-18.20
-26.13
-35.13
-44.27
-52.30
-57.86
-59.68
-57.00
-49.71
-38.60
-25.13
-11.12
1.75
12.29
20.02
25.11
28.08
29.50
29.85
29.34
28.13
26.31
24.06
21.53
18.82
15.89
12.66
9.07
5.23
1.55
-1.39
-2.93
-2.74
-0.87
2.10
5.33
7.96
9.38
9.40
8.13
5.80
2.63
-1.23
-5.68
-10.52
-15.47
-20.22
-24.56
-28.40
-31.73
-34.33
-35.72
-35.18
-32.02
-25.92
-17.18
-6.69
4.29
14.52
23.05
29.27
33.00
34.31
33.51
31.09
27.73
24.09
20.76
18.06
16.03
14.47
13.13
11.82
10.49
9.26
8.29
7.66
7.28
6.83
5.80
3.61
-0.13
-5.47
-12.03
-19.07
-25.70
-31.09
-34.67
-36.26
-36.04
-34.52
-32.44
-30.66
-29.85
-30.43
-32.23
-34.50
-36.16
-36.13
-33.76
-29.04
-22.59
-15.30
-8.14
-1.92
2.88
6.02
7.48
7.49
6.54
5.24
4.26
4.01
4.56
5.66
6.87
7.93
8.77
9.57
10.63
12.15
14.13
16.31
18.19
19.16
18.69
16.45
12.47
7.13
1.10
-4.94
-10.43
-15.12
-19.15
-22.84
-26.52
-30.34
-34.09
-37.20
-38.88
-38.36
-35.12
-29.13
-20.91
-11.38
-1.60
7.41
14.93
20.58
24.29
26.18
26.48
25.42
23.22
20.15
16.44
12.39
8.31
4.53
1.39
-0.78
-1.73
-1.29
0.45
3.13
6.08
8.45
9.34
8.05
4.27
-1.85
-9.65
-18.18
-26.31
-33.07
-37.95
-40.97
-42.57
-43.33
-43.60
-43.27
-41.88
-38.85
-33.90
-27.22
-19.49
-11.55
-4.16
2.26
7.61
12.01
15.64
18.55
20.65
21.75
21.60
20.05
17.20
13.35
8.95
4.51
0.42
-3.09
-5.86
-7.81
-8.84
-8.81
-7.65
-5.47
-2.55
0.63
3.59
5.90
7.26
7.43
6.22
3.38
-1.28
-7.64
-15.16
-22.65
-28.64
-31.77
-31.23
-27.09
-20.15
-11.74
-3.11
4.73
11.27
16.36
19.99
22.31
23.48
23.71
23.31
22.58
21.78
21.05
20.33
19.45
18.26
16.65
14.69
12.57
10.61
9.09
8.17
7.91
8.19
8.83
9.57
10.11
10.12
9.24
7.14
3.50
-1.88
-9.11
-17.93
-27.74
-37.46
-45.60
-50.72
-51.67
-48.05
-40.29
-29.51
-17.23
-5.04
5.73
14.24
20.05
23.27
24.29
23.75
22.25
20.30
18.17
15.95
13.63
11.11
8.30
5.16
1.80
-1.49
-4.13
-5.53
-5.28
-3.39
-0.39
2.85
5.50
6.99
7.22
6.40
4.77
2.40
-0.86
-5.33
-11.15
-18.17
-25.87
-33.39
-39.69
-43.72
-44.58
-41.77
-35.30
-25.77
-14.30
-2.30
8.88
18.27
25.49
30.69
34.34
36.91
38.71
39.76
39.91
39.03
37.14
34.43
31.23
27.94
24.91
22.45
20.84
20.25
20.75
22.20
24.23
26.17
27.24
26.65
23.88
18.80
11.68
3.22
-5.71
-14.26
-21.76
-27.91
-32.74
-36.51
-39.65
-42.40
-44.74
-46.27
-46.45
-44.74
-40.93
-35.16
-27.87
-19.64
-11.09
-2.75
4.84
11.20
15.93
18.73
19.54
18.45
15.76
11.83
7.16
2.34
-1.95
-5.07
-6.53
-6.13
-3.96
-0.38
4.13
9.07
13.92
18.21
21.55
23.55
24.00
22.82
20.12
16.20
11.46
6.31
1.07
-4.14
-9.39
-14.68
-19.82
-24.18
-26.73
-26.43
-22.57
-15.23
-5.31
5.65
15.96
24.29
29.97
33.01
33.91
33.33
31.85
29.88
27.62
25.22
22.75
20.34
18.11
16.23
14.75
13.65
12.74
11.76
10.36
8.33
5.64
2.47
-0.81
-3.85
-6.56
-9.11
-11.99
-15.74
-20.81
-27.25
-34.68
-42.31
-49.01
-53.69
-55.41
-53.67
-48.51
-40.50
-30.62
-20.09
-10.05
-1.26
5.92
11.63
16.18
19.94
23.04
25.48
27.18
28.25
28.94
29.64
30.61
31.88
33.22
34.25
34.59
33.90
31.95
28.62
23.89
17.96
11.25
4.27
-2.47
-8.68
-14.28
-19.38
-24.15
-28.75
-33.33
-38.00
-42.77
-47.33
-50.98
-52.65
-51.26
-46.20
-37.65
-26.55
-14.36
-2.48
8.14
17.17
24.71
30.97
36.02
39.69
41.77
42.17
41.08
38.95
36.35
33.74
31.44
29.52
27.96
26.67
25.56
24.59
23.87
23.51
23.70
24.47
25.64
26.78
27.26
26.46
23.96
19.67
13.80
6.72
-1.23
-9.89
-19.24
-29.25
-39.73
-50.17
-59.64
-67.01
-71.09
-70.97
-66.33
-57.58
-45.83
-32.54
-19.20
-6.90
3.78
12.80
20.32
26.57
31.60
35.33
37.67
38.61
38.28
36.86
34.53
31.45
27.79
23.82
19.95
16.67
14.43
13.54
14.02
15.67
18.11
20.90
23.62
25.86
27.20
27.28
25.80
22.65
17.94
12.07
5.60
-0.86
-6.83
-12.19
-17.08
-21.92
-27.11
-32.84
-38.85
-44.43
-48.54
-50.08
-48.26
-42.88
-34.42
-23.82
-12.29
-0.84
9.79
19.23
27.31
33.87
38.64
41.34
41.88
40.52
37.93
35.03
32.74
31.63
31.73
32.51
33.12
32.64
30.54
26.74
21.64
15.95
10.39
5.42
1.30
-2.00
-4.63
-6.68
-8.24
-9.42
-10.46
-11.70
-13.63
-16.63
-20.88
-26.31
-32.65
-39.53
-46.57
-53.34
-59.21
-63.34
-64.79
-62.84
-57.32
-48.78
-38.37
-27.48
-17.27
-8.37
-0.87
5.49
11.07
16.01
20.33
23.83
26.39
28.00
28.76
28.84
28.47
27.82
27.01
26.10
25.10
23.95
22.55
20.76
18.47
15.63
12.29
8.61
4.83
1.21
-2.06
-4.89
-7.33
-9.52
-11.74
-14.41
-17.94
-22.57
-28.09
-33.73
-38.18
-40.00
-38.06
-32.06
-22.55
-10.86
1.48
13.10
23.13
31.14
37.01
40.78
42.60
42.77
41.76
40.10
38.24
36.42
34.60
32.50
29.84
26.56
22.81
18.92
15.21
11.77
8.40
4.55
-0.27
-6.33
-13.41
-20.87
-27.78
-33.35
-37.21
-39.50
-40.84
-42.09
-44.11
-47.55
-52.62
-58.95
-65.62
-71.21
-74.18
-73.23
-67.69
-57.79
-44.62
-29.76
-14.90
-1.44
9.68
18.14
24.05
27.85
29.97
30.83
30.68
29.77
28.30
26.55
24.80
23.32
22.33
21.95
22.23
23.09
24.35
25.63
26.47
26.43
25.16
22.62
19.01
14.71
10.17
5.82
1.99
-1.21
-3.92
-6.63
-10.02
-14.73
-21.09
-28.73
-36.58
-43.01
-46.34
-45.42
-40.00
-30.72
-18.93
-6.14
6.35
17.67
27.33
35.18
41.12
45.16
47.38
47.98
47.22
45.38
42.74
39.48
35.87
32.10
28.33
24.73
21.38
18.37
15.90
14.14
13.14
12.72
12.37
11.46
9.52
6.46
2.63
-1.33
-4.90
-7.91
-10.64
-13.76
-18.00
-23.90
-31.64
-40.94
-51.01
-60.63
-68.30
-72.47
-72.00
-66.42
-56.12
-42.27
-26.47
-10.40
4.51
17.30
27.52
35.10
40.24
43.25
44.48
44.26
42.90
40.71
37.96
34.79
31.23
27.23
22.74
17.91
13.10
8.81
5.55
3.54
2.67
2.44
2.23
1.49
-0.08
-2.46
-5.42
-8.63
-11.90
-15.21
-18.72
-22.76
-27.66
-33.59
-40.36
-47.30
-53.23
-56.71
-56.42
-51.59
-42.29
-29.55
-14.93
-0.18
13.36
24.86
34.10
41.12
46.13
49.26
50.60
50.31
48.58
45.69
41.92
37.62
33.07
28.66
24.71
21.53
19.30
17.95
17.19
16.64
15.86
14.51
12.43
9.56
5.92
1.62
-3.28
-8.64
-14.35
-20.34
-26.66
-33.39
-40.59
-47.93
-54.53
-59.01
-59.75
-55.55
-46.10
-32.23
-15.61
1.62
17.60
31.02
41.26
48.29
52.32
53.74
53.00
50.60
47.06
42.90
38.57
34.35
30.43
26.81
23.45
20.33
17.54
15.28
13.80
13.20
13.28
13.53
13.23
11.69
8.54
3.78
-2.12
-8.50
-14.70
-20.33
-25.31
-29.95
-34.83
-40.59
-47.70
-56.11
-65.02
-72.89
-77.82
-78.15
-73.03
-62.76
-48.64
-32.61
-16.54
-1.87
10.69
21.00
29.28
35.79
40.74
44.22
46.24
46.87
46.24
44.57
42.21
39.58
37.00
34.71
32.75
31.08
29.62
28.30
27.09
25.94
24.76
23.36
21.50
18.92
15.48
11.17
6.20
0.95
-4.20
-8.96
-13.24
-17.18
-21.07
-25.25
-30.01
-35.53
-41.78
-48.48
-54.90
-59.91
-62.09
-60.10
-53.17
-41.49
-26.31
-9.65
6.38
20.15
30.87
38.54
43.64
46.73
48.16
48.12
46.73
44.32
41.35
38.36
35.71
33.51
31.56
29.58
27.33
24.79
22.12
19.58
17.38
15.61
14.17
12.82
11.27
9.21
6.45
2.88
-1.46
-6.33
-11.43
-16.35
-20.79
-24.61
-27.87
-30.85
-33.98
-37.73
-42.44
-48.22
-54.85
-61.67
-67.54
-71.04
-70.77
-65.79
-55.98
-42.19
-26.06
-9.56
5.58
18.24
28.05
35.15
39.93
42.63
43.42
42.44
39.96
36.40
32.30
28.17
24.31
20.85
17.80
15.17
13.08
11.70
11.14
11.41
12.29
13.33
13.96
13.60
11.89
8.71
4.34
-0.72
-5.89
-10.67
-14.84
-18.54
-22.07
-25.85
-30.23
-35.45
-41.53
-48.18
-54.67
-59.82
-62.17
-60.45
-54.03
-43.27
-29.50
-14.58
-0.32
11.95
21.70
28.95
33.99
37.10
38.49
38.29
36.68
33.98
30.59
26.95
23.43
20.29
17.54
15.16
13.06
11.22
9.78
8.87
8.55
8.70
8.90
8.65
7.45
5.08
1.61
-2.56
-6.96
-11.19
-14.99
-18.40
-21.60
-24.89
-28.55
-32.89
-38.10
-44.20
-50.84
-57.18
-61.95
-63.72
-61.37
-54.53
-43.81
-30.52
-16.40
-2.95
8.83
18.47
25.84
30.98
33.93
34.81
33.88
31.55
28.34
24.80
21.28
17.99
14.96
12.22
9.82
7.93
6.68
6.16
6.32
6.92
7.58
7.92
7.64
6.52
4.57
1.84
-1.47
-5.10
-8.79
-12.39
-15.91
-19.61
-23.86
-29.00
-35.15
-42.05
-48.97
-54.80
-58.22
-58.08
-53.74
-45.27
-33.57
-20.09
-6.46
5.93
16.23
24.11
29.62
32.92
34.20
33.65
31.51
28.17
24.12
19.88
15.88
12.41
9.58
7.47
6.09
5.48
5.58
6.23
7.13
7.82
7.82
6.71
4.34
0.82
-3.52
-8.27
-13.12
-17.85
-22.47
-27.15
-32.16
-37.79
-44.15
-50.96
-57.39
-62.16
-63.78
-61.07
-53.66
-42.11
-27.89
-12.84
1.34
13.47
22.97
29.79
34.14
36.36
36.81
35.88
33.97
31.47
28.71
25.86
22.99
20.04
16.97
13.79
10.71
8.11
6.52
6.43
7.99
10.92
14.48
17.65
19.53
19.54
17.58
13.99
9.37
4.22
-1.05
-6.34
-11.72
-17.43
-23.67
-30.60
-38.23
-46.39
-54.61
-62.03
-67.49
-69.70
-67.59
-60.68
-49.36
-34.82
-18.75
-2.91
11.41
23.44
32.93
39.91
44.57
47.08
47.72
46.85
45.02
42.73
40.45
38.40
36.63
35.04
33.43
31.74
30.01
28.41
27.21
26.57
26.54
26.84
27.02
26.58
25.14
22.66
19.37
15.72
12.09
8.71
5.45
2.07
-1.76
-6.17
-11.12
-16.35
-21.54
-26.39
-30.74
-34.64
-38.24
-41.89
-46.00
-50.92
-56.83
-63.47
-69.98
-74.92
-76.66
-73.78
-65.67
-52.80
-36.61
-19.17
-2.50
11.92
23.38
31.84
37.67
41.37
43.29
43.73
42.89
41.05
38.57
35.85
33.27
31.10
29.43
28.24
27.47
27.06
27.04
27.43
28.18
29.13
30.01
30.44
30.08
28.75
26.49
23.53
20.27
17.06
14.10
11.40
8.80
6.02
2.86
-0.76
-4.78
-9.06
-13.40
-17.68
-21.78
-25.69
-29.50
-33.31
-37.32
-41.75
-46.81
-52.60
-59.00
-65.45
-70.94
-74.12
-73.63
-68.58
-58.97
-45.73
-30.48
-15.03
-0.85
11.21
20.89
28.25
33.48
36.66
37.92
37.51
35.85
33.45
30.82
28.28
26.01
24.05
22.47
21.35
20.76
20.70
21.09
21.76
22.53
23.14
23.41
23.12
22.15
20.45
18.09
15.29
12.31
9.38
6.55
3.71
0.61
-2.96
-7.08
-11.67
-16.49
-21.22
-25.65
-29.70
-33.50
-37.32
-41.47
-46.20
-51.52
-57.08
-62.00
-65.08
-64.99
-60.81
-52.33
-40.23
-25.91
-11.01
3.00
15.14
24.96
32.40
37.56
40.59
41.68
41.18
39.52
37.18
34.62
32.08
29.69
27.47
25.47
23.82
22.73
22.30
22.51
23.15
23.89
24.35
24.17
23.14
21.24
18.60
15.47
11.98
8.24
4.22
-0.12
-4.75
-9.55
-14.30
-18.87
-23.22
-27.53
-32.04
-37.04
-42.72
-49.07
-55.82
-62.25
-67.28
-69.60
-68.01
-61.86
-51.37
-37.62
-22.25
-6.99
6.82
18.36
27.38
33.95
38.32
40.74
41.49
40.91
39.31
37.05
34.44
31.75
29.25
27.15
25.68
25.01
25.17
26.00
27.18
28.32
29.05
29.12
28.44
27.08
25.17
22.82
20.03
16.82
13.15
9.00
4.42
-0.49
-5.55
-10.50
-15.11
-19.22
-22.84
-26.13
-29.48
-33.35
-38.24
-44.36
-51.43
-58.50
-64.07
-66.44
-64.23
-56.89
-44.91
-29.72
-13.19
2.87
17.11
28.76
37.50
43.38
46.60
47.58
46.84
44.91
42.32
39.44
36.45
33.45
30.49
27.67
25.23
23.41
22.39
22.23
22.77
23.63
24.35
24.52
23.88
22.46
20.48
18.19
15.76
13.15
10.19
6.68
2.58
-2.00
-6.77
-11.44
-15.83
-19.93
-23.86
-27.81
-32.00
-36.64
-41.91
-47.76
-53.77
-59.04
-62.29
-62.20
-57.83
-49.03
-36.59
-21.98
-6.91
7.12
19.11
28.61
35.60
40.27
42.86
43.58
42.63
40.24
36.76
32.60
28.22
24.10
20.55
17.75
15.67
14.18
13.11
12.36
11.84
11.49
11.26
11.01
10.53
9.63
8.14
5.93
3.02
-0.53
-4.51
-8.67
-12.75
-16.58
-20.16
-23.66
-27.43
-31.85
-37.18
-43.39
-50.02
-56.18
-60.60
-61.99
-59.31
-52.18
-41.05
-27.17
-12.23
2.03
14.28
23.82
30.59
34.95
37.41
38.37
38.12
36.78
34.53
31.62
28.38
25.16
22.26
19.86
18.05
16.88
16.30
16.26
16.58
17.02
17.23
16.92
15.85
13.96
11.29
7.93
3.99
-0.39
-5.10
-10.01
-14.93
-19.74
-24.25
-28.36
-32.04
-35.39
-38.69
-42.34
-46.78
-52.27
-58.60
-64.91
-69.72
-71.33
-68.26
-59.88
-46.66
-30.09
-12.21
4.95
19.88
31.80
40.52
46.32
49.60
50.89
50.72
49.64
48.09
46.33
44.47
42.48
40.34
38.14
36.20
34.89
34.48
35.03
36.29
37.77
38.86
39.08
38.20
36.31
33.72
30.79
27.75
24.66
21.34
17.52
13.03
7.83
2.06
-4.09
-10.35
-16.56
-22.56
-28.32
-33.97
-39.79
-46.19
-53.47
-61.47
-69.33
-75.48
-78.10
-75.73
-67.88
-55.28
-39.66
-23.16
-7.64
5.67
16.27
24.19
29.63
32.89
34.21
33.88
32.26
29.79
26.88
23.93
21.24
19.07
17.57
16.83
16.81
17.37
18.27
19.18
19.81
19.87
19.22
17.79
15.67
13.04
10.14
7.13
4.06
0.84
-2.72
-6.78
-11.33
-16.18
-20.96
-25.31
-28.98
-32.00
-34.66
-37.48
-40.97
-45.45
-50.75
-56.09
-60.18
-61.48
-58.71
-51.38
-39.97
-25.85
-10.82
3.38
15.58
25.25
32.49
37.66
41.09
42.96
43.31
42.11
39.48
35.76
31.51
27.38
23.93
21.48
20.05
19.47
19.44
19.73
20.21
20.73
21.19
21.38
21.03
19.91
17.85
14.80
10.89
6.33
1.39
-3.64
-8.51
-13.06
-17.27
-21.25
-25.30
-29.76
-34.94
-40.92
-47.36
-53.35
-57.67
-58.91
-56.03
-48.69
-37.44
-23.51
-8.53
5.91
18.72
29.27
37.38
43.11
46.60
47.96
47.39
45.14
41.63
37.39
32.99
28.96
25.63
23.17
21.51
20.51
19.94
19.62
19.41
19.20
18.88
18.34
17.31
15.52
12.68
8.64
3.52
-2.32
-8.38
-14.13
-19.16
-23.40
-26.98
-30.26
-33.69
-37.74
-42.77
-48.91
-55.76
-62.35
-67.15
-68.46
-64.92
-56.09
-42.61
-26.01
-8.25
8.80
23.79
35.96
45.10
51.25
54.58
55.33
53.90
50.74
46.40
41.42
36.29
31.38
26.96
23.19
20.07
17.58
15.60
14.01
12.66
11.50
10.48
9.62
8.86
7.98
6.72
4.78
2.00
-1.51
-5.46
-9.47
-13.20
-16.51
-19.57
-22.59
-25.90
-29.74
-34.30
-39.70
-45.81
-52.07
-57.41
-60.46
-59.83
-54.71
-45.22
-32.47
-18.21
-4.27
7.97
17.91
25.48
31.02
34.84
37.12
37.92
37.30
35.49
32.77
29.55
26.13
22.74
19.50
16.43
13.62
11.15
9.23
8.06
7.81
8.47
9.75
11.06
11.69
11.00
8.66
4.79
-0.10
-5.30
-10.22
-14.57
-18.40
-22.01
-25.70
-29.73
-34.19
-39.06
-43.99
-48.40
-51.30
-51.47
-47.86
-39.95
-28.11
-13.57
1.94
16.67
29.25
38.93
45.52
49.15
50.11
48.80
45.69
41.33
36.33
31.24
26.41
22.00
17.99
14.30
10.86
7.67
4.90
2.72
1.27
0.56
0.40
0.32
-0.27
-1.98
-5.20
-9.95
-15.82
-22.09
-27.94
-32.75
-36.37
-39.05
-41.49
-44.55
-48.97
-55.02
-62.24
-69.33
-74.37
-75.30
-70.59
-59.85
-44.01
-25.04
-5.37
12.81
28.04
39.61
47.41
51.63
52.63
50.91
47.15
42.22
36.97
32.00
27.57
23.53
19.51
15.27
10.78
6.40
2.73
0.34
-0.46
0.15
1.47
2.53
2.49
0.86
-2.20
-6.07
-9.91
-13.11
-15.49
-17.37
-19.42
-22.35
-26.69
-32.52
-39.39
-46.24
-51.59
-53.78
-51.44
-43.97
-31.79
-16.32
0.45
16.50
30.29
40.99
48.49
53.10
55.26
55.40
53.91
51.13
47.45
43.23
38.74
34.17
29.65
25.30
21.32
18.01
15.58
14.14
13.51
13.30
12.98
12.08
10.33
7.67
4.18
0.02
-4.61
-9.44
-14.23
-18.86
-23.43
-28.28
-33.70
-39.71
-45.62
-50.14
-51.62
-48.77
-41.20
-29.64
-15.77
-1.49
11.64
22.74
31.57
38.21
42.76
45.31
45.94
44.91
42.64
39.59
36.06
32.18
27.95
23.43
18.87
14.66
11.28
8.97
7.72
7.24
7.09
6.79
5.98
4.44
2.12
-0.91
-4.48
-8.41
-12.53
-16.74
-21.07
-25.74
-31.04
-37.15
-43.88
-50.37
-55.14
-56.51
-53.18
-44.80
-32.25
-17.34
-2.32
10.90
21.16
28.21
32.45
34.52
35.05
34.45
32.97
30.74
27.91
24.67
21.25
17.91
14.84
12.20
10.05
8.35
7.00
5.84
4.68
3.26
1.37
-1.14
-4.28
-7.87
-11.64
-15.32
-18.73
-21.93
-25.25
-29.10
-33.84
-39.43
-45.21
-49.94
-52.06
-50.17
-43.65
-32.91
-19.28
-4.62
9.32
21.32
30.82
37.79
42.43
44.96
45.61
44.65
42.51
39.80
37.12
34.91
33.35
32.30
31.48
30.60
29.46
28.05
26.43
24.60
22.46
19.78
16.29
11.77
6.25
-0.01
-6.57
-12.93
-18.73
-23.78
-28.16
-32.11
-36.06
-40.48
-45.71
-51.82
-58.32
-64.15
-67.77
-67.59
-62.58
-52.67
-38.90
-23.14
-7.45
6.52
17.83
26.28
32.10
35.62
37.18
37.06
35.55
33.08
30.11
27.09
24.35
22.07
20.24
18.78
17.59
16.57
15.65
14.84
14.17
13.66
13.25
12.69
11.63
9.71
6.64
2.47
-2.50
-7.71
-12.55
-16.63
-19.92
-22.68
-25.30
-28.23
-31.84
-36.37
-41.83
-47.83
-53.43
-57.22
-57.61
-53.43
-44.47
-31.65
-16.77
-1.86
11.45
22.28
30.40
36.00
39.31
40.51
39.82
37.56
34.22
30.33
26.34
22.57
19.25
16.46
14.23
12.54
11.30
10.46
9.97
9.86
10.11
10.62
11.07
11.00
10.01
7.81
4.44
0.17
-4.59
-9.35
-13.77
-17.64
-20.99
-23.97
-26.84
-29.87
-33.22
-37.02
-41.13
-45.20
-48.51
-50.04
-48.62
-43.44
-34.37
-22.23
-8.58
4.75
16.16
24.88
30.82
34.43
36.20
36.46
35.33
32.89
29.38
25.23
21.05
17.36
14.42
12.19
10.46
8.98
7.64
6.55
5.91
5.82
6.20
6.66
6.62
5.54
3.12
-0.59
-5.20
-10.13
-14.84
-18.92
-22.27
-25.05
-27.73
-30.89
-35.09
-40.59
-47.06
-53.49
-58.33
-59.87
-56.90
-49.17
-37.54
-23.70
-9.55
3.31
14.00
22.33
28.48
32.73
35.27
36.11
35.30
32.98
29.44
25.14
20.51
15.94
11.65
7.84
4.63
2.17
0.56
-0.13
-0.09
0.40
0.88
0.92
0.22
-1.24
-3.27
-5.52
-7.60
-9.32
-10.65
-11.90
-13.54
-16.08
-19.91
-25.09
-31.28
-37.72
-43.29
-46.68
-46.72
-42.70
-34.66
-23.48
-10.68
2.03
13.24
22.19
28.90
33.85
37.70
40.87
43.35
44.78
44.68
42.69
38.74
33.14
26.44
19.23
12.06
5.32
-0.69
-5.63
-9.17
-11.06
-11.31
-10.28
-8.75
-7.64
-7.74
-9.51
-12.83
-17.15
-21.70
-25.79
-29.00
-31.28
-32.93
-34.48
-36.60
-39.89
-44.55
-50.17
-55.62
-59.22
-59.28
-54.63
-45.25
-32.23
-17.43
-2.83
10.11
20.62
28.65
34.44
38.34
40.63
41.55
41.47
40.72
39.64
38.38
36.92
35.13
32.88
30.27
27.46
24.81
22.56
20.81
19.44
18.19
16.66
14.52
11.64
8.06
4.03
-0.11
-4.00
-7.44
-10.43
-13.29
-16.59
-20.99
-26.97
-34.35
-42.14
-48.64
-51.91
-50.54
-44.17
-33.73
-21.06
-8.37
2.59
10.92
16.65
20.44
23.16
25.52
27.82
29.91
31.32
31.47
29.82
26.11
20.45
13.30
5.45
-2.16
-8.61
-13.27
-15.98
-16.99
-16.91
-16.38
-15.92
-15.83
-16.28
-17.35
-19.21
-22.03
-25.99
-31.14
-37.32
-44.10
-50.67
-55.82
-58.09
-56.16
-49.23
-37.48
-22.02
-4.60
12.91
28.95
42.61
53.47
61.48
66.72
69.42
69.82
68.25
64.91
59.76
52.59
43.21
31.83
19.23
6.71
-4.36
-12.90
-18.44
-21.12
-21.40
-19.89
-17.12
-13.65
-10.08
-7.05
-5.04
-4.23
-4.47
-5.48
-7.16
-9.71
-13.43
-18.33
-23.81
-28.54
-30.81
-29.17
-23.05
-13.02
-0.54
12.51
24.55
34.63
42.47
48.19
51.94
53.78
53.69
51.77
48.31
43.94
39.44
35.48
32.46
30.36
28.79
27.22
25.18
22.39
18.84
14.67
10.02
5.01
-0.29
-5.76
-11.20
-16.28
-20.75
-24.49
-27.65
-30.65
-34.01
-38.29
-43.79
-50.42
-57.47
-63.70
-67.53
-67.49
-62.74
-53.42
-40.64
-26.17
-11.81
1.05
11.77
20.34
27.09
32.38
36.31
38.79
39.67
38.96
36.94
34.08
30.89
27.80
24.93
22.17
19.36
16.44
13.56
11.05
9.25
8.26
7.96
7.89
7.53
6.40
4.31
1.39
-1.99
-5.35
-8.33
-10.71
-12.56
-14.16
-16.01
-18.62
-22.33
-27.08
-32.25
-36.72
-39.03
-37.92
-32.68
-23.59
-11.81
1.02
13.21
23.63
31.78
37.75
41.91
44.68
46.37
47.26
47.66
47.89
48.20
48.60
48.79
48.22
46.29
42.61
37.23
30.74
24.04
18.06
13.44
10.43
8.85
8.37
8.66
9.47
10.58
11.61
12.02
11.17
8.60
4.19
-1.76
-8.61
-15.59
-22.07
-27.67
-32.34
-36.32
-40.12
-44.30
-49.29
-55.11
-61.13
-66.10
-68.48
-66.87
-60.54
-49.72
-35.50
-19.53
-3.53
11.05
23.34
32.98
40.10
45.08
48.31
50.12
50.66
49.97
48.09
45.21
41.65
37.81
34.11
30.80
28.00
25.76
24.09
22.99
22.42
22.22
22.17
22.02
21.57
20.77
19.64
18.27
16.63
14.63
12.10
8.87
4.82
-0.07
-5.59
-11.38
-16.96
-21.83
-25.75
-28.69
-31.01
-33.26
-36.02
-39.52
-43.56
-47.45
-50.25
-51.11
-49.56
-45.65
-39.88
-32.96
-25.47
-17.83
-10.22
-2.78
4.26
10.50
15.45
18.64
19.83
19.04
16.65
13.23
9.51
6.12
3.52
1.90
1.19
1.15
1.49
1.96
2.39
2.63
2.54
1.96
0.80
-0.94
-3.03
-5.07
-6.56
-7.14
-6.70
-5.53
-4.15
-3.24
-3.35
-4.86
-7.88
-12.21
-17.29
-22.15
-25.62
-26.51
-24.12
-18.46
-10.35
-1.11
7.89
15.63
21.74
26.31
29.64
31.92
33.19
33.33
32.30
30.23
27.37
24.14
20.84
17.70
14.81
12.17
9.77
7.66
5.93
4.75
4.38
5.05
6.79
9.37
12.13
14.12
14.33
12.03
6.95
-0.55
-9.62
-19.17
-28.11
-35.70
-41.61
-45.97
-49.20
-51.91
-54.50
-56.98
-58.96
-59.61
-58.11
-53.91
-46.98
-37.76
-27.07
-15.80
-4.71
5.61
14.72
22.23
27.76
30.96
31.72
30.27
27.18
23.35
19.73
17.14
15.98
16.24
17.49
19.09
20.45
21.26
21.50
21.36
20.99
20.30
19.02
16.87
13.76
9.88
5.71
1.69
-1.95
-5.29
-8.53
-11.88
-15.27
-18.49
-21.38
-24.06
-26.96
-30.61
-35.16
-40.14
-44.41
-46.49
-45.16
-39.88
-31.06
-19.84
-7.80
3.63
13.47
21.27
27.04
31.10
33.79
35.48
36.40
36.62
36.06
34.53
31.82
27.82
22.61
16.51
10.03
3.81
-1.52
-5.44
-7.69
-8.23
-7.26
-5.26
-2.85
-0.77
0.30
-0.17
-2.38
-6.14
-10.94
-16.02
-20.63
-24.18
-26.43
-27.49
-27.87
-28.31
-29.60
-32.38
-36.80
-42.34
-47.72
-51.32
-51.55
-47.44
-38.97
-27.05
-13.20
0.99
14.22
25.68
34.94
41.80
46.14
47.94
47.33
44.75
40.81
36.24
31.60
27.20
23.10
19.20
15.49
12.13
9.41
7.60
6.88
7.11
7.96
8.96
9.69
9.81
9.15
7.67
5.37
2.38
-1.11
-4.86
-8.69
-12.48
-16.28
-20.13
-24.07
-27.98
-31.58
-34.49
-36.38
-37.04
-36.48
-34.86
-32.40
-29.31
-25.62
-21.31
-16.36
-10.76
-4.64
1.71
7.85
13.26
17.39
19.85
20.48
19.42
17.06
13.95
10.63
7.52
4.81
2.55
0.60
-1.20
-3.04
-5.06
-7.35
-9.88
-12.51
-14.99
-17.02
-18.36
-18.92
-18.86
-18.52
-18.43
-19.07
-20.86
-23.86
-27.75
-31.82
-35.07
-36.43
-35.04
-30.50
-22.99
-13.24
-2.37
8.48
18.31
26.44
32.55
36.59
38.76
39.41
38.96
37.79
36.10
33.91
31.10
27.60
23.56
19.48
16.03
13.77
12.82
12.72
12.56
11.45
8.87
5.03
0.73
-2.99
-5.29
-5.97
-5.48
-4.84
-5.25
-7.83
-13.29
-21.78
-32.65
-44.53
-55.45
-63.26
-66.23
-63.47
-55.26
-42.87
-28.23
-13.28
0.33
11.50
19.72
24.87
27.26
27.42
26.09
24.03
21.84
19.88
18.20
16.64
14.94
12.86
10.32
7.37
4.25
1.30
-1.10
-2.65
-3.23
-2.97
-2.19
-1.36
-0.94
-1.22
-2.36
-4.36
-7.13
-10.62
-14.92
-20.11
-26.17
-32.74
-38.99
-43.71
-45.57
-43.60
-37.53
-27.88
-15.84
-2.88
9.66
20.71
29.63
36.08
39.97
41.42
40.75
38.53
35.47
32.30
29.61
27.76
26.73
26.18
25.60
24.65
23.39
22.34
22.28
23.84
27.05
31.12
34.55
35.65
33.11
26.43
16.20
3.85
-8.83
-20.09
-28.80
-34.59
-37.75
-39.06
-39.45
-39.81
-40.81
-42.81
-45.68
-48.73
-50.76
-50.32
-46.25
-38.13
-26.58
-13.04
0.65
12.80
22.29
28.66
31.97
32.66
31.45
29.14
26.59
24.47
23.07
22.28
21.77
21.14
20.25
19.26
18.48
18.18
18.42
19.08
19.79
20.09
19.52
17.81
14.89
11.00
6.61
2.18
-1.95
-5.73
-9.39
-13.32
-17.86
-23.25
-29.45
-36.13
-42.59
-47.79
-50.59
-49.93
-45.27
-36.83
-25.55
-12.90
-0.41
10.67
19.62
26.25
30.78
33.68
35.47
36.62
37.38
37.75
37.43
35.87
32.46
26.80
18.97
9.62
-0.10
-8.90
-15.77
-20.21
-22.31
-22.55
-21.56
-19.88
-18.01
-16.33
-15.22
-15.15
-16.46
-19.30
-23.57
-28.96
-34.95
-40.88
-45.84
-48.80
-48.83
-45.37
-38.43
-28.69
-17.20
-5.08
6.76
17.79
27.72
36.28
43.18
48.07
50.71
51.21
49.97
47.61
44.73
41.72
38.72
35.68
32.51
29.16
25.78
22.57
19.74
17.36
15.32
13.35
11.15
8.52
5.45
2.13
-1.20
-4.36
-7.34
-10.37
-13.86
-18.25
-23.83
-30.56
-37.91
-44.93
-50.34
-52.90
-51.62
-46.15
-36.81
-24.49
-10.45
4.04
17.89
30.27
40.54
48.17
52.72
53.84
51.47
45.91
37.95
28.68
19.38
11.13
4.73
0.51
-1.51
-1.55
-0.05
2.49
5.44
8.23
10.27
11.14
10.57
8.55
5.32
1.38
-2.61
-6.03
-8.49
-10.06
-11.29
-12.93
-15.73
-20.06
-25.87
-32.71
-39.92
-46.65
-51.98
-54.83
-54.22
-49.49
-40.59
-28.24
-13.85
0.90
14.54
26.09
35.17
41.81
46.17
48.40
48.65
47.06
43.96
39.76
34.96
30.07
25.47
21.43
18.12
15.63
13.94
12.97
12.52
12.33
12.17
11.86
11.27
10.31
8.92
7.05
4.67
1.83
-1.33
-4.58
-7.63
-10.29
-12.54
-14.70
-17.25
-20.69
-25.19
-30.44
-35.59
-39.45
-40.91
-39.30
-34.57
-27.29
-18.37
-8.83
0.52
9.18
16.87
23.49
28.94
33.08
35.69
36.69
36.19
34.60
32.55
30.62
29.12
27.97
26.84
25.31
23.17
20.51
17.60
14.70
11.92
9.18
6.36
3.44
0.63
-1.79
-3.60
-4.83
-5.74
-6.75
-8.26
-10.63
-14.23
-19.37
-26.25
-34.70
-43.89
-52.32
-58.16
-59.75
-56.25
-47.94
-36.12
-22.63
-9.19
3.01
13.46
22.09
29.02
34.24
37.71
39.42
39.65
38.94
37.97
37.24
36.83
36.43
35.50
33.68
31.04
28.18
25.94
25.06
25.75
27.59
29.68
30.99
30.65
28.21
23.63
17.22
9.49
1.06
-7.41
-15.38
-22.43
-28.31
-32.92
-36.29
-38.51
-39.89
-41.01
-42.75
-45.95
-51.06
-57.62
-64.19
-68.69
-69.10
-64.30
-54.51
-41.26
-26.71
-13.00
-1.53
7.22
13.50
17.94
21.21
23.85
26.22
28.52
30.77
32.83
34.33
34.87
34.19
32.25
29.41
26.24
23.28
20.95
19.30
18.12
17.11
15.98
14.55
12.77
10.65
8.18
5.38
2.33
-0.76
-3.72
-6.36
-8.76
-11.15
-13.89
-17.30
-21.52
-26.53
-32.06
-37.65
-42.62
-46.10
-47.17
-45.13
-39.73
-31.32
-20.80
-9.28
2.23
13.02
22.69
31.00
37.63
42.14
44.05
42.99
38.99
32.53
24.57
16.30
8.84
3.01
-0.87
-2.83
-3.17
-2.12
0.10
3.25
6.88
10.34
12.89
13.99
13.54
11.80
9.30
6.48
3.58
0.70
-2.17
-4.97
-7.72
-10.58
-13.85
-17.90
-22.88
-28.59
-34.54
-40.15
-44.90
-48.37
-50.15
-49.64
-46.19
-39.39
-29.40
-17.11
-3.96
8.52
19.22
27.62
33.81
38.13
40.87
42.12
41.78
39.85
36.51
32.23
27.59
23.19
19.39
16.28
13.68
11.29
8.91
6.55
4.46
2.97
2.31
2.40
2.82
2.93
2.20
0.39
-2.21
-4.95
-7.11
-8.25
-8.47
-8.44
-9.27
-12.03
-17.54
-26.02
-36.95
-49.06
-60.50
-69.20
-73.28
-71.63
-64.12
-51.76
-36.39
-20.11
-4.83
8.21
18.39
25.71
30.43
32.91
33.46
32.43
30.26
27.42
24.45
21.72
19.37
17.29
15.25
13.09
10.83
8.79
7.31
6.71
7.03
8.00
9.16
9.98
10.04
9.11
7.22
4.58
1.45
-1.95
-5.50
-9.24
-13.32
-18.02
-23.59
-30.04
-37.05
-43.77
-48.95
-51.19
-49.45
-43.41
-33.75
-21.91
-9.65
1.58
11.00
18.51
24.41
28.98
32.25
33.99
34.10
32.83
30.88
29.19
28.42
28.58
28.82
27.83
24.36
17.91
9.10
-0.56
-9.28
-15.67
-19.24
-20.33
-19.74
-18.27
-16.38
-14.33
-12.38
-10.93
-10.54
-11.60
-14.18
-17.95
-22.39
-27.06
-31.76
-36.47
-41.06
-45.07
-47.72
-48.00
-44.99
-38.17
-27.61
-14.02
1.37
17.08
31.60
43.60
52.09
56.58
57.07
54.13
48.89
42.77
37.31
33.71
32.43
33.08
34.58
35.53
34.89
32.31
28.26
23.77
19.89
17.23
15.70
14.66
13.25
10.88
7.32
2.81
-2.26
-7.46
-12.34
-16.47
-19.33
-20.49
-19.93
-18.32
-16.98
-17.34
-20.31
-25.64
-31.81
-36.67
-38.26
-35.55
-28.80
-19.26
-8.56
1.85
11.06
18.61
24.32
28.11
30.04
30.30
29.23
27.23
24.61
21.52
17.95
13.87
9.25
4.18
-1.19
-6.67
-11.97
-16.64
-20.12
-21.92
-21.87
-20.37
-18.31
-16.81
-16.82
-18.75
-22.46
-27.44
-33.16
-39.04
-44.52
-48.74
-50.54
-48.79
-42.84
-33.11
-20.99
-8.48
2.59
11.22
17.41
21.91
25.59
28.94
31.77
33.53
33.64
31.94
28.77
24.87
21.13
18.29
16.70
16.28
16.69
17.37
17.80
17.63
16.75
15.27
13.48
11.58
9.63
7.43
4.63
0.84
-4.13
-10.30
-17.52
-25.58
-34.22
-42.98
-51.02
-57.06
-59.64
-57.61
-50.74
-39.93
-27.05
-14.33
-3.54
4.54
10.04
13.71
16.37
18.38
19.67
19.97
19.00
16.79
13.61
9.87
5.95
2.10
-1.50
-4.67
-7.18
-8.71
-9.03
-8.07
-6.06
-3.49
-1.01
0.77
1.42
0.75
-1.30
-4.66
-9.34
-15.32
-22.41
-30.11
-37.46
-43.13
-45.77
-44.43
-38.83
-29.51
-17.62
-4.58
8.29
20.02
29.94
37.81
43.55
47.26
49.12
49.46
48.56
46.70
44.06
40.63
36.46
31.69
26.66
21.94
18.13
15.68
14.62
14.53
14.54
13.66
11.09
6.56
0.35
-6.77
-13.89
-20.24
-25.41
-29.44
-32.68
-35.73
-39.11
-42.98
-46.99
-50.26
-51.56
-49.81
-44.54
-36.07
-25.49
-14.21
-3.48
5.90
13.61
19.68
24.24
27.34
29.09
29.59
29.12
28.05
26.82
25.80
25.29
25.43
26.03
26.70
26.79
25.67
22.93
18.58
12.99
6.80
0.72
-4.76
-9.30
-12.80
-15.32
-17.03
-18.32
-19.81
-22.10
-25.57
-30.00
-34.40
-37.28
-37.10
-32.89
-24.69
-13.62
-1.42
10.10
19.67
26.86
31.96
35.57
38.27
40.23
41.22
40.83
38.81
35.35
31.20
27.39
24.83
23.86
23.97
23.91
22.21
17.79
10.37
0.78
-9.45
-18.66
-25.59
-29.90
-32.09
-33.07
-33.80
-35.01
-37.05
-40.09
-44.15
-48.98
-53.97
-58.02
-59.68
-57.64
-51.24
-40.78
-27.61
-13.68
-0.94
9.23
16.30
20.57
22.81
23.98
24.87
25.99
27.53
29.34
31.05
32.13
32.06
30.53
27.67
24.10
20.72
18.37
17.38
17.36
17.41
16.44
13.82
9.58
4.43
-0.69
-5.08
-8.47
-11.14
-13.63
-16.43
-19.76
-23.47
-27.04
-29.69
-30.46
-28.47
-23.12
-14.44
-3.16
9.30
21.15
30.78
37.18
40.27
40.81
40.07
39.25
39.18
40.00
41.31
42.37
42.42
40.78
37.06
31.21
23.54
14.73
5.69
-2.64
-9.50
-14.51
-17.69
-19.35
-19.96
-19.92
-19.60
-19.29
-19.21
-19.49
-20.24
-21.59
-23.75
-26.97
-31.23
-36.09
-40.55
-43.25
-42.88
-38.75
-31.11
-21.10
-10.36
-0.41
7.81
14.00
18.42
21.54
23.84
25.58
26.92
27.89
28.46
28.48
27.72
25.96
23.12
19.41
15.26
11.33
8.15
6.04
4.92
4.41
4.03
3.37
2.22
0.56
-1.45
-3.74
-6.27
-9.20
-12.80
-17.35
-23.01
-29.53
-36.17
-41.69
-44.73
-44.13
-39.43
-31.13
-20.48
-9.14
1.43
10.34
17.40
22.83
26.90
29.66
30.77
29.74
26.21
20.27
12.58
4.21
-3.63
-10.03
-14.53
-17.20
-18.40
-18.56
-17.97
-16.76
-15.01
-12.94
-10.96
-9.61
-9.39
-10.50
-12.89
-16.30
-20.53
-25.51
-31.33
-37.87
-44.54
-50.19
-53.29
-52.41
-46.74
-36.51
-22.84
-7.46
7.80
21.47
32.57
40.69
45.85
48.32
48.57
47.17
44.75
41.82
38.81
35.90
33.17
30.56
27.96
25.31
22.61
19.93
17.34
14.94
12.70
10.59
8.47
6.11
3.34
0.09
-3.54
-7.31
-10.98
-14.50
-17.97
-21.63
-25.53
-29.38
-32.43
-33.63
-31.96
-26.78
-18.21
-7.06
5.22
16.93
26.43
32.48
34.52
32.75
28.10
21.96
15.70
10.40
6.54
4.13
2.89
2.51
2.71
3.28
3.95
4.33
4.02
2.72
0.45
-2.52
-5.71
-8.71
-11.25
-13.39
-15.39
-17.65
-20.50
-24.19
-28.81
-34.30
-40.28
-46.11
-50.77
-53.09
-51.99
-46.89
-38.03
-26.36
-13.38
-0.54
11.03
20.68
28.20
33.58
36.83
37.96
36.96
33.96
29.29
23.34
16.58
9.55
2.81
-3.16
-7.94
-11.35
-13.36
-14.09
-13.71
-12.41
-10.48
-8.30
-6.45
-5.48
-5.79
-7.47
-10.33
-14.08
-18.48
-23.37
-28.54
-33.51
-37.32
-38.74
-36.74
-30.86
-21.53
-9.95
2.39
14.19
24.70
33.78
41.52
47.89
52.61
55.19
55.24
52.77
48.26
42.60
36.68
31.13
26.06
21.10
15.67
9.24
1.76
-6.36
-14.19
-20.64
-24.84
-26.50
-26.04
-24.45
-23.09
-23.08
-25.18
-29.58
-35.90
-43.28
-50.52
-56.12
-58.56
-56.62
-49.71
-38.12
-23.05
-6.23
10.48
25.56
38.03
47.50
53.93
57.64
59.14
59.16
58.62
58.31
58.67
59.47
60.01
59.29
56.61
51.89
45.77
39.33
33.57
29.04
25.70
23.19
21.13
19.48
18.49
18.47
19.49
21.20
22.96
24.09
24.17
23.14
21.31
19.12
17.01
15.24
13.95
13.18
12.95
13.25
14.07
15.42
17.31
19.74
22.66
25.93
29.25
32.27
34.61
35.89
36.03
35.16
33.65
31.91
30.16
28.30
25.97
22.65
17.96
11.88
4.76
-2.76
-10.02
-16.44
-21.68
-25.54
-28.04
-29.38
-29.88
-30.03
-30.25
-30.80
-31.73
-32.78
-33.66
-34.10
-33.97
-33.25
-31.99
-30.27
-28.16
-25.76
-23.16
-20.54
-18.06
-15.81
-13.82
-12.01
-10.31
-8.71
-7.40
-6.73
-7.12
-8.85
-11.94
-15.96
-20.13
-23.58
-25.59
-25.95
-24.95
-23.28
-21.66
-20.53
-19.95
-19.69
-19.49
-19.27
-19.15
-19.28
-19.64
-19.87
-19.50
-18.18
-15.94
-13.20
-10.57
-8.45
-6.79
-5.11
-2.83
0.41
4.50
8.86
12.81
15.79
17.64
18.59
19.06
19.36
19.52
19.31
18.40
16.51
13.48
9.35
4.24
-1.69
-8.17
-14.85
-21.15
-26.46
-30.21
-32.17
-32.45
-31.50
-29.85
-27.93
-25.90
-23.76
-21.36
-18.59
-15.34
-11.60
-7.40
-2.96
1.33
4.97
7.51
8.85
9.30
9.54
10.34
12.15
14.85
17.79
19.98
20.45
18.71
14.82
9.48
3.62
-1.80
-6.20
-9.36
-11.39
-12.65
-13.48
-14.12
-14.68
-15.19
-15.72
-16.39
-17.28
-18.42
-19.70
-20.79
-21.28
-20.69
-18.75
-15.45
-11.05
-6.06
-0.94
3.99
8.64
13.09
17.41
21.57
25.24
27.98
29.27
28.76
26.31
22.08
16.40
9.72
2.58
-4.44
-10.73
-15.77
-19.20
-20.88
-21.02
-20.04
-18.45
-16.75
-15.27
-14.23
-13.72
-13.74
-14.26
-15.17
-16.12
-16.61
-16.12
-14.22
-10.85
-6.34
-1.33
3.52
7.75
11.30
14.33
17.03
19.38
21.13
21.94
21.57
20.09
17.76
15.02
12.28
9.88
8.03
6.81
6.13
5.71
5.15
4.01
2.03
-0.81
-4.24
-7.92
-11.59
-15.19
-18.69
-21.99
-24.70
-26.25
-26.04
-23.75
-19.59
-14.23
-8.62
-3.57
0.57
3.97
7.15
10.55
14.24
17.67
19.93
20.08
17.61
12.76
6.49
0.22
-4.74
-7.58
-8.25
-7.45
-6.16
-5.36
-5.64
-7.05
-9.30
-11.91
-14.47
-16.75
-18.67
-20.27
-21.64
-22.89
-24.09
-25.24
-26.13
-26.27
-25.08
-22.10
-17.35
-11.52
-5.80
-1.45
0.78
0.99
0.10
-0.74
-0.74
0.23
1.60
2.70
3.11
2.99
2.80
3.10
4.06
5.44
6.75
7.65
8.09
8.34
8.72
9.22
9.48
8.83
6.61
2.59
-2.80
-8.52
-13.26
-15.91
-15.91
-13.37
-8.87
-3.21
2.92
9.01
14.79
20.12
24.85
28.77
31.59
33.02
32.76
30.72
26.99
21.85
15.85
9.61
3.68
-1.61
-6.10
-9.75
-12.51
-14.30
-15.23
-15.55
-15.88
-16.94
-19.41
-23.46
-28.70
-34.16
-38.72
-41.43
-41.87
-40.27
-37.35
-34.07
-31.24
-29.15
-27.47
-25.33
-21.69
-15.73
-7.21
3.47
15.32
27.09
37.56
45.76
51.06
53.18
52.29
49.00
44.15
38.68
33.30
28.31
23.63
19.04
14.30
9.36
4.32
-0.71
-5.76
-11.00
-16.74
-23.28
-30.66
-38.59
-46.28
-52.55
-56.06
-55.69
-51.05
-42.63
-31.69
-19.87
-8.77
0.43
7.03
10.83
12.12
11.79
11.25
12.16
15.92
22.92
32.31
42.11
49.96
53.99
53.51
49.04
42.07
34.30
27.07
21.04
16.18
12.01
7.94
3.56
-1.21
-6.15
-10.89
-15.15
-18.64
-21.10
-22.18
-21.46
-18.61
-13.67
-7.18
-0.07
6.57
11.93
15.70
18.01
19.24
19.80
19.83
19.23
17.84
15.59
12.71
9.73
7.27
5.82
5.52
6.02
6.74
7.08
6.64
5.40
3.49
1.10
-1.63
-4.72
-8.24
-12.13
-16.26
-20.26
-23.63
-25.75
-25.93
-23.59
-18.39
-10.42
-0.14
11.52
23.46
34.50
43.57
49.89
53.05
53.08
50.39
45.71
39.87
33.69
27.75
22.33
17.57
13.50
10.22
7.81
6.37
5.82
5.89
6.17
6.16
5.54
4.24
2.43
0.35
-1.75
-3.85
-6.09
-8.69
-11.88
-15.66
-19.79
-23.76
-26.87
-28.40
-27.89
-25.28
-20.93
-15.52
-9.77
-4.32
0.46
4.34
7.11
8.54
8.38
6.60
3.50
-0.31
-4.07
-7.29
-9.90
-12.30
-15.11
-18.86
-23.58
-28.82
-33.74
-37.58
-40.02
-41.34
-42.36
-44.03
-47.02
-51.33
-56.23
-60.36
-62.11
-60.10
-53.51
-42.26
-27.13
-9.66
8.14
24.15
36.54
44.27
47.22
46.18
42.61
38.14
34.22
31.80
31.13
31.90
33.36
34.61
34.87
33.61
30.69
26.30
20.88
14.87
8.70
2.65
-3.12
-8.53
-13.54
-18.17
-22.47
-26.55
-30.68
-35.10
-39.96
-45.02
-49.52
-52.17
-51.53
-46.46
-36.51
-22.25
-5.04
13.27
30.73
45.71
57.18
64.74
68.59
69.38
67.92
65.04
61.40
57.44
53.44
49.63
46.22
43.34
40.98
38.90
36.70
34.01
30.58
26.49
22.00
17.57
13.57
10.16
7.12
4.05
0.49
-3.82
-8.78
-14.04
-19.13
-23.56
-27.01
-29.31
-30.44
-30.42
-29.38
-27.46
-24.78
-21.40
-17.29
-12.50
-7.19
-1.83
2.89
6.22
7.65
7.13
5.07
2.18
-0.85
-3.64
-6.20
-8.82
-11.78
-15.13
-18.63
-21.71
-23.76
-24.22
-22.80
-19.58
-15.08
-10.26
-6.36
-4.58
-5.81
-10.13
-16.71
-23.95
-29.94
-33.04
-32.44
-28.21
-21.13
-12.28
-2.61
7.23
16.82
25.73
33.41
39.21
42.63
43.55
42.39
40.01
37.47
35.72
35.42
36.73
39.40
42.80
46.09
48.33
48.78
46.98
42.97
37.19
30.30
22.90
15.29
7.55
-0.47
-8.92
-17.76
-26.57
-34.54
-40.65
-43.98
-44.05
-40.98
-35.42
-28.34
-20.57
-12.58
-4.51
3.50
11.11
17.49
21.65
22.88
21.15
17.32
12.74
8.90
6.75
6.44
7.32
8.26
8.14
6.35
2.98
-1.30
-5.57
-9.15
-11.86
-14.01
-16.07
-18.37
-20.83
-22.95
-24.16
-24.05
-22.63
-20.29
-17.69
-15.37
-13.56
-12.21
-10.89
-9.23
-6.93
-4.02
-0.69
2.76
6.10
9.16
11.75
13.64
14.52
14.18
12.69
10.47
8.26
6.76
6.36
6.97
8.09
9.03
9.29
8.63
7.07
4.72
1.59
-2.37
-7.12
-12.39
-17.63
-22.17
-25.42
-27.12
-27.31
-26.31
-24.45
-22.00
-19.11
-15.92
-12.64
-9.57
-6.97
-4.88
-3.06
-0.94
1.99
5.98
10.57
14.67
16.83
15.92
11.73
5.17
-2.05
-8.10
-11.91
-13.47
-13.63
-13.48
-13.76
-14.51
-15.36
-15.82
-15.72
-15.30
-14.97
-15.04
-15.67
-16.82
-18.29
-19.79
-20.80
-20.59
-18.37
-13.58
-6.26
2.76
12.04
20.01
25.48
28.10
28.36
27.22
25.58
23.96
22.25
20.06
17.06
13.28
9.18
5.44
2.57
0.71
-0.44
-1.40
-2.57
-4.00
-5.41
-6.33
-6.50
-6.02
-5.35
-5.17
-5.98
-7.94
-10.80
-14.12
-17.40
-20.24
-22.18
-22.63
-20.83
-16.10
-8.36
1.57
11.91
20.54
25.75
26.99
25.00
21.41
17.99
15.86
15.36
16.09
17.45
18.94
20.30
21.44
22.23
22.45
21.80
20.10
17.45
14.31
11.32
9.12
8.06
8.02
8.41
8.41
7.34
4.95
1.52
-2.29
-5.69
-8.06
-9.06
-8.72
-7.35
-5.55
-4.03
-3.46
-4.11
-5.66
-7.26
-7.90
-6.92
-4.47
-1.46
0.94
1.98
1.80
1.38
1.92
4.12
7.73
11.64
14.49
15.33
13.97
10.94
7.01
2.85
-1.10
-4.44
-6.59
-6.88
-4.91
-1.05
3.36
6.43
6.47
2.88
-3.60
-11.23
-18.12
-23.03
-25.68
-26.57
-26.31
-25.17
-22.97
-19.47
-14.73
-9.45
-4.68
-1.36
0.19
0.54
0.81
2.18
5.32
10.12
15.81
21.31
25.63
28.09
28.34
26.33
22.23
16.49
9.85
3.19
-2.75
-7.66
-11.73
-15.57
-19.77
-24.53
-29.48
-33.81
-36.61
-37.41
-36.39
-34.42
-32.74
-32.44
-34.16
-37.83
-42.76
-47.69
-51.10
-51.31
-46.96
-37.39
-23.07
-5.86
11.19
24.66
31.95
32.19
26.68
18.30
10.31
5.17
3.79
5.55
9.09
13.13
16.93
20.37
23.52
26.18
27.88
28.04
26.47
23.65
20.70
18.93
19.26
21.68
25.14
27.92
28.29
25.18
18.74
10.23
1.67
-4.86
-7.94
-7.23
-3.55
1.50
6.14
9.18
10.43
10.69
11.19
12.88
15.92
19.61
22.89
24.96
25.71
25.68
25.64
26.10
26.93
27.51
27.16
25.48
22.54
18.71
14.46
10.09
5.80
1.74
-1.77
-4.27
-5.32
-4.78
-3.13
-1.41
-0.99
-3.04
-8.07
-15.66
-24.58
-33.18
-39.88
-43.69
-44.29
-42.04
-37.69
-32.16
-26.34
-20.93
-16.43
-13.03
-10.69
-9.16
-8.03
-6.83
-5.11
-2.58
0.81
4.81
9.04
12.98
16.18
18.46
19.94
20.91
21.65
22.26
22.55
22.13
20.31
16.24
9.09
-1.57
-15.41
-31.12
-46.73
-60.14
-69.85
-75.37
-77.21
-76.38
-73.98
-70.88
-67.80
-65.31
-63.96
-63.84
-64.33
-64.07
-61.47
-55.37
-45.36
-31.81
-15.48
2.75
21.93
40.94
58.39
72.94
83.71
90.67
94.44
95.82
95.11
91.84
85.15
74.54
60.55
44.85
29.79
17.47
8.94
4.07
1.83
0.92
0.36
-0.24
-0.88
-1.41
-1.94
-2.84
-4.62
-7.41
-10.83
-13.97
-15.74
-15.33
-12.55
-7.86
-2.14
3.70
9.07
13.87
18.31
22.58
26.71
30.35
33.02
34.20
33.62
31.31
27.55
22.84
17.67
12.55
7.86
3.85
0.53
-2.23
-4.65
-6.87
-8.82
-10.32
-11.18
-11.38
-11.21
-11.19
-11.86
-13.43
-15.77
-18.45
-21.00
-23.14
-24.85
-26.35
-27.83
-29.38
-30.81
-31.76
-31.80
-30.58
-27.93
-23.95
-18.95
-13.52
-8.36
-4.06
-1.02
0.88
2.18
3.63
5.81
8.84
12.24
15.10
16.49
15.80
13.12
9.17
4.96
1.39
-1.04
-2.29
-2.72
-2.71
-2.59
-2.46
-2.40
-2.52
-3.06
-4.32
-6.49
-9.53
-13.09
-16.75
-20.09
-22.88
-25.14
-26.97
-28.58
-30.06
-31.40
-32.41
-32.72
-31.67
-28.52
-22.66
-13.92
-2.87
9.17
20.42
29.14
34.14
35.12
32.71
28.12
22.77
17.85
14.07
11.62
10.29
9.65
9.13
8.21
6.41
3.47
-0.55
-5.19
-9.64
-13.02
-14.60
-14.21
-12.12
-9.09
-5.95
-3.43
-2.13
-2.48
-4.83
-9.40
-16.16
-24.66
-33.96
-42.75
-49.58
-53.21
-52.83
-48.23
-39.79
-28.48
-15.64
-2.88
8.29
16.81
22.27
25.04
26.01
26.27
26.66
27.52
28.67
29.64
29.92
29.20
27.49
25.00
22.02
18.84
15.63
12.43
9.23
6.02
2.83
-0.29
-3.24
-5.99
-8.58
-11.10
-13.80
-16.98
-20.93
-25.80
-31.40
-37.04
-41.54
-43.49
-41.66
-35.55
-25.70
-13.58
-1.15
9.82
18.17
23.59
26.38
27.19
26.60
25.04
22.79
20.11
17.30
14.63
12.29
10.25
8.32
6.14
3.37
-0.14
-4.36
-9.02
-13.72
-18.14
-22.14
-25.76
-29.14
-32.42
-35.64
-38.85
-42.21
-45.97
-50.47
-55.78
-61.34
-65.90
-67.70
-65.08
-57.21
-44.41
-28.16
-10.49
6.63
21.92
34.76
45.04
52.72
57.68
59.82
59.34
56.81
53.13
49.23
45.66
42.58
39.72
36.72
33.37
29.61
25.58
21.41
17.19
12.91
8.57
4.14
-0.36
-4.81
-9.11
-13.13
-16.88
-20.53
-24.52
-29.28
-34.96
-41.02
-46.06
-48.18
-45.62
-37.55
-24.60
-8.81
7.05
20.46
29.77
34.67
35.89
34.74
32.56
30.30
28.45
27.04
25.98
25.11
24.37
23.62
22.62
21.00
18.19
13.82
7.85
0.80
-6.40
-12.72
-17.54
-20.85
-23.18
-25.34
-28.06
-31.79
-36.78
-43.06
-50.45
-58.32
-65.49
-70.21
-70.67
-65.61
-54.86
-39.48
-21.43
-2.91
14.30
29.05
40.87
49.54
55.01
57.26
56.49
53.24
48.43
43.19
38.54
35.07
32.71
30.84
28.65
25.49
21.22
16.18
11.07
6.57
3.15
0.86
-0.65
-1.90
-3.47
-5.81
-9.26
-13.92
-19.66
-25.93
-31.73
-35.76
-36.61
-33.21
-25.15
-12.94
2.03
17.79
32.23
43.57
50.65
53.08
51.20
45.96
38.72
31.03
24.19
19.07
15.90
14.30
13.44
12.35
10.20
6.62
1.75
-3.86
-9.46
-14.34
-18.08
-20.67
-22.48
-24.25
-26.87
-31.23
-37.88
-46.62
-56.25
-64.69
-69.38
-68.21
-60.22
-45.99
-27.46
-7.27
12.22
29.38
43.43
54.14
61.35
64.84
64.39
60.24
53.21
44.71
36.34
29.39
24.47
21.45
19.67
18.32
16.85
15.08
13.24
11.75
10.97
11.06
11.82
12.71
13.02
12.12
9.55
5.32
-0.15
-6.00
-11.05
-14.05
-13.98
-10.31
-3.18
6.60
17.78
28.95
38.84
46.48
51.19
52.60
50.61
45.51
38.03
29.29
20.57
12.97
7.10
2.94
-0.01
-2.44
-4.94
-7.84
-11.16
-14.81
-18.68
-22.66
-26.71
-30.78
-34.79
-38.74
-42.83
-47.33
-52.53
-58.28
-63.87
-68.01
-69.24
-66.41
-59.20
-48.19
-34.73
-20.43
-6.68
5.59
15.85
23.75
28.95
31.13
30.20
26.50
20.90
14.53
8.56
3.72
0.25
-2.12
-3.89
-5.51
-7.13
-8.70
-10.00
-10.95
-11.71
-12.78
-14.86
-18.60
-24.22
-31.17
-38.11
-43.14
-44.44
-40.83
-32.31
-20.02
-5.81
8.48
21.57
32.90
42.48
50.41
56.59
60.51
61.53
59.16
53.46
45.15
35.38
25.41
16.20
8.20
1.33
-4.72
-10.18
-15.02
-19.02
-21.99
-24.03
-25.64
-27.55
-30.46
-34.77
-40.39
-46.79
-52.98
-57.72
-59.71
-57.94
-51.98
-42.19
-29.65
-15.84
-2.20
10.34
21.39
31.02
39.46
46.77
52.81
57.30
59.97
60.73
59.68
57.06
53.16
48.32
42.82
36.93
30.95
25.24
20.11
15.84
12.53
10.02
8.01
6.05
3.66
0.52
-3.63
-8.97
-15.61
-23.40
-31.73
-39.28
-44.23
-44.61
-39.00
-27.17
-10.35
9.11
28.32
44.86
57.38
65.76
70.90
74.01
75.97
77.00
76.67
74.33
69.53
62.49
53.93
44.92
36.31
28.55
21.63
15.43
10.00
5.75
3.23
2.69
3.69
5.07
5.29
3.13
-1.76
-8.60
-15.89
-22.01
-26.03
-28.06
-29.10
-30.58
-33.78
-39.47
-47.78
-58.18
-69.47
-79.86
-87.12
-89.06
-84.17
-72.27
-54.69
-33.96
-13.04
5.67
20.81
32.12
40.10
45.37
48.34
49.11
47.71
44.36
39.64
34.33
29.27
25.06
21.97
20.03
19.14
19.18
20.01
21.39
22.91
24.00
24.09
22.84
20.21
16.52
12.34
8.15
4.29
0.73
-2.94
-7.30
-13.00
-20.29
-28.79
-37.26
-43.83
-46.45
-43.67
-35.21
-22.11
-6.59
8.74
21.57
30.61
35.67
37.49
37.26
36.09
34.66
33.20
31.55
29.52
27.01
24.06
20.82
17.56
14.43
11.55
8.99
6.75
4.80
3.08
1.42
-0.39
-2.46
-4.89
-7.69
-10.80
-14.23
-18.00
-22.18
-26.88
-32.24
-38.33
-45.20
-52.55
-59.68
-65.39
-68.17
-66.63
-60.00
-48.48
-33.30
-16.44
0.07
14.59
26.24
34.90
40.83
44.37
45.71
44.99
42.36
38.32
33.58
28.96
25.18
22.56
21.03
20.32
20.03
19.89
19.76
19.56
19.23
18.72
17.99
17.06
15.95
14.63
12.94
10.63
7.33
2.75
-3.24
-10.47
-18.30
-25.69
-31.37
-34.16
-33.35
-28.98
-21.89
-13.33
-4.56
3.63
10.96
17.49
23.34
28.40
32.24
34.37
34.40
32.27
28.31
23.18
17.58
12.21
7.60
4.06
1.70
0.45
0.02
-0.10
-0.58
-2.09
-5.12
-9.78
-15.72
-22.18
-28.25
-33.20
-36.73
-39.01
-40.73
-42.80
-46.06
-50.92
-57.05
-63.35
-68.07
-69.40
-66.03
-57.62
-44.97
-29.66
-13.63
1.44
14.38
24.64
32.18
37.25
40.28
41.73
42.04
41.52
40.30
38.41
35.83
32.58
28.77
24.70
20.63
16.88
13.65
10.97
8.70
6.53
4.03
0.88
-3.04
-7.63
-12.58
-17.54
-22.24
-26.56
-30.58
-34.56
-38.84
-43.78
-49.53
-55.84
-61.85
-66.18
-67.22
-63.74
-55.33
-42.70
-27.48
-11.74
2.79
15.02
24.66
32.02
37.52
41.47
44.00
45.13
44.98
43.86
42.16
40.23
38.27
36.23
33.94
31.22
28.12
24.90
22.02
19.82
18.36
17.30
15.99
13.73
10.05
4.90
-1.34
-8.00
-14.44
-20.19
-25.10
-29.33
-33.15
-36.98
-41.29
-46.52
-52.89
-60.12
-67.27
-72.79
-74.94
-72.30
-64.40
-51.90
-36.35
-19.67
-3.57
10.81
22.85
32.28
39.07
43.22
44.94
44.65
42.98
40.54
37.79
34.97
32.12
29.28
26.51
24.00
21.91
20.34
19.25
18.51
18.01
17.62
17.27
16.86
16.19
15.07
13.25
10.62
7.20
3.19
-1.12
-5.46
-9.70
-13.86
-18.01
-22.25
-26.56
-30.90
-35.19
-39.36
-43.20
-46.23
-47.72
-46.77
-42.75
-35.54
-25.74
-14.51
-3.19
7.12
15.81
22.71
27.90
31.50
33.50
33.92
32.83
30.44
27.16
23.40
19.55
15.83
12.35
9.11
6.13
3.45
1.08
-0.96
-2.81
-4.67
-6.74
-9.17
-11.94
-14.88
-17.80
-20.60
-23.27
-25.94
-28.77
-31.88
-35.34
-39.14
-43.22
-47.45
-51.65
-55.64
-59.38
-63.03
-66.92
-71.29
-75.92
-79.91
-81.70
-79.56
-72.33
-60.03
-44.12
-27.01
-11.23
1.47
10.52
16.48
20.56
23.99
27.60
31.72
36.20
40.49
43.57
44.09
40.82
33.47
23.22
12.82
5.78
4.94
11.21
23.02
36.97
49.20
56.89
59.01
56.18
49.89
41.62
32.42
22.96
13.94
6.25
0.82
-1.76
-1.60
0.35
2.45
2.99
0.75
-4.32
-11.01
-17.25
-20.78
-20.01
-14.56
-5.44
5.54
16.54
26.39
34.86
42.28
48.94
54.64
58.63
60.03
58.37
53.97
47.79
41.05
34.76
29.34
24.82
20.99
17.70
14.93
12.73
11.08
9.82
8.71
7.58
6.40
5.28
4.39
3.78
3.31
2.61
1.21
-1.27
-4.98
-9.74
-15.16
-20.79
-26.24
-31.35
-36.02
-40.31
-44.39
-48.53
-53.06
-58.14
-63.55
-68.37
-71.11
-70.13
-64.30
-53.50
-38.79
-22.06
-5.47
9.18
20.83
29.18
34.56
37.57
39.00
39.58
39.90
40.35
41.01
41.75
42.26
42.29
41.62
40.24
38.27
35.95
33.62
31.60
30.05
28.90
27.81
26.20
23.55
19.59
14.49
8.83
3.39
-1.08
-4.21
-6.07
-7.11
-7.99
-9.41
-12.02
-16.26
-22.47
-30.69
-40.53
-51.05
-60.75
-67.85
-70.78
-68.74
-61.82
-51.07
-37.99
-24.11
-10.60
1.80
12.69
21.79
28.84
33.69
36.35
37.07
36.29
34.51
32.11
29.27
26.11
22.59
18.83
14.98
11.30
8.06
5.45
3.61
2.47
1.92
1.79
1.87
1.95
1.71
0.85
-0.93
-3.70
-7.37
-11.59
-16.00
-20.38
-24.70
-29.19
-34.12
-39.73
-46.08
-52.99
-59.98
-66.19
-70.42
-71.32
-67.79
-59.35
-46.48
-30.53
-13.33
3.28
17.84
29.51
38.02
43.51
46.42
47.37
47.04
46.16
45.15
44.12
42.75
40.59
37.38
33.32
29.20
26.02
24.61
25.04
26.45
27.36
26.25
22.23
15.51
7.21
-1.19
-8.43
-13.96
-17.99
-21.08
-23.81
-26.47
-29.09
-31.65
-34.21
-36.99
-40.27
-44.19
-48.68
-53.43
-57.91
-61.36
-62.92
-61.67
-56.99
-48.75
-37.52
-24.37
-10.61
2.64
14.70
25.26
34.25
41.60
47.15
50.76
52.42
52.30
50.66
47.75
43.74
38.85
33.44
28.06
23.37
19.85
17.67
16.60
16.22
16.08
15.90
15.60
15.13
14.40
13.16
11.15
8.29
4.81
1.14
-2.20
-4.90
-6.97
-8.66
-10.37
-12.47
-15.17
-18.50
-22.34
-26.42
-30.33
-33.60
-35.77
-36.53
-35.77
-33.66
-30.53
-26.70
-22.40
-17.71
-12.66
-7.24
-1.56
4.16
9.66
14.58
18.58
21.37
22.69
22.40
20.55
17.34
13.19
8.67
4.46
1.22
-0.60
-0.93
-0.25
0.63
0.68
-0.85
-4.15
-8.77
-13.80
-18.25
-21.42
-23.13
-23.67
-23.66
-23.94
-25.28
-28.35
-33.41
-40.17
-47.64
-54.25
-58.24
-58.21
-53.57
-44.69
-32.77
-19.41
-6.10
6.07
16.44
24.69
30.75
34.60
36.39
36.39
35.00
32.77
30.29
28.11
26.61
25.91
25.83
25.93
25.73
24.92
23.56
21.98
20.49
19.01
16.89
13.13
6.80
-2.34
-13.57
-25.38
-36.05
-44.27
-49.56
-52.30
-53.44
-54.14
-55.34
-57.71
-61.48
-66.26
-71.06
-74.41
-74.72
-70.82
-62.41
-50.03
-34.92
-18.60
-2.54
12.09
24.38
33.73
39.88
43.01
43.71
42.87
41.44
40.31
40.12
41.12
43.22
45.80
47.85
48.25
46.20
41.60
35.22
28.38
22.44
18.31
16.14
15.47
15.45
15.32
14.55
12.96
10.69
8.06
5.50
3.32
1.63
0.09
-1.90
-5.10
-10.05
-16.85
-24.85
-32.72
-38.71
-41.00
-38.33
-30.32
-17.75
-2.37
13.44
27.31
37.39
42.75
43.45
40.47
35.23
29.25
23.74
19.37
16.30
14.26
12.86
11.74
10.57
9.10
7.16
4.61
1.54
-1.73
-4.71
-6.87
-7.91
-7.92
-7.28
-6.57
-6.32
-6.90
-8.56
-11.33
-15.18
-19.86
-24.92
-29.74
-33.70
-36.49
-38.11
-38.96
-39.44
-39.68
-39.43
-38.12
-35.18
-30.28
-23.54
-15.35
-6.26
3.18
12.46
21.18
28.84
35.02
39.38
41.78
42.36
41.41
39.34
36.56
33.39
30.03
26.52
22.85
19.01
15.04
11.06
7.27
3.83
0.86
-1.63
-3.64
-5.19
-6.20
-6.62
-6.49
-6.21
-6.55
-8.56
-13.25
-21.13
-31.83
-43.97
-55.42
-63.80
-67.23
-64.87
-57.10
-45.32
-31.44
-17.36
-4.44
6.53
15.33
22.11
27.16
30.73
33.00
34.02
33.77
32.10
28.84
23.89
17.42
9.94
2.37
-4.20
-8.74
-10.69
-10.15
-7.91
-5.15
-3.14
-2.82
-4.70
-8.77
-14.63
-21.66
-29.20
-36.74
-43.83
-50.11
-55.09
-58.06
-58.16
-54.51
-46.66
-34.79
-19.85
-3.32
13.15
28.14
40.68
50.31
56.98
60.98
62.80
63.00
62.15
60.67
58.79
56.47
53.54
49.83
45.26
40.03
34.55
29.36
25.01
21.86
19.94
18.87
17.90
16.11
12.73
7.31
-0.09
-9.00
-18.68
-28.30
-37.23
-45.14
-52.05
-58.03
-63.04
-66.67
-68.15
-66.64
-61.50
-52.73
-40.93
-27.15
-12.54
1.90
15.47
27.66
37.97
45.93
51.07
53.16
52.28
48.95
44.01
38.53
33.43
29.30
26.25
23.96
21.91
19.70
17.21
14.64
12.31
10.37
8.62
6.67
4.09
0.75
-3.10
-6.99
-10.47
-13.39
-15.97
-18.70
-22.08
-26.48
-31.89
-37.89
-43.67
-48.05
-49.75
-47.70
-41.40
-31.12
-17.97
-3.59
10.42
22.82
33.04
41.03
46.94
50.85
52.77
52.71
51.03
48.47
45.91
43.95
42.58
41.00
38.06
32.77
24.93
15.26
5.18
-3.87
-10.94
-15.90
-19.25
-21.70
-23.72
-25.37
-26.48
-26.97
-27.13
-27.64
-29.32
-32.79
-38.21
-45.21
-52.94
-60.27
-66.04
-69.33
-69.65
-67.06
-62.07
-55.49
-48.09
-40.50
-33.09
-26.15
-20.04
-15.28
-12.44
-12.00
-14.13
-18.55
-24.47
-30.61
-35.41
-37.39
-35.62
-30.03
-21.48
-11.51
-1.63
7.30
15.36
23.50
32.99
44.93
59.69
76.84
95.20
113.03
128.27
138.73
142.63
138.94
127.80
110.48
89.18
66.34
44.07
23.73
5.75
-10.02
-24.07
-36.77
-48.30
-58.55
-67.19
-73.69
-77.40
-77.69
-74.09
-66.69
-56.22
-44.07
-32.03
-21.71
-14.18
-9.61
-7.46
-6.70
-6.28
-5.42
-3.64
-0.80
3.03
7.59
12.44
17.00
20.61
22.71
22.96
21.26
17.87
13.29
8.21
3.35
-0.77
-4.06
-6.93
-9.99
-13.76
-18.19
-22.46
-25.17
-24.90
-20.78
-12.91
-2.30
9.57
21.23
31.65
40.29
47.06
51.98
55.15
56.64
56.53
54.99
52.23
48.48
43.97
39.01
33.96
29.27
25.37
22.64
21.28
21.23
22.27
23.97
25.81
27.30
28.06
27.82
26.47
24.03
20.57
16.21
11.03
5.04
-1.75
-9.28
-17.32
-25.52
-33.42
-40.71
-47.25
-53.00
-57.79
-61.07
-61.85
-59.12
-52.30
-41.68
-28.48
-14.40
-1.07
10.52
20.01
27.58
33.43
37.59
39.92
40.24
38.60
35.34
31.02
26.28
21.75
17.93
15.10
13.29
12.27
11.75
11.44
11.19
10.99
10.86
10.65
10.13
8.98
7.01
4.30
1.09
-2.23
-5.41
-8.37
-11.27
-14.38
-17.90
-21.92
-26.39
-31.25
-36.39
-41.78
-47.17
-52.05
-55.48
-56.26
-53.34
-46.29
-35.58
-22.56
-9.00
3.51
14.04
22.38
28.83
33.68
36.98
38.44
37.69
34.52
29.09
21.98
13.94
5.75
-1.88
-8.39
-13.38
-16.59
-17.93
-17.59
-15.93
-13.63
-11.36
-9.73
-9.02
-9.19
-9.91
-10.73
-11.30
-11.54
-11.74
-12.41
-14.11
-17.28
-22.01
-27.91
-34.11
-39.34
-42.30
-41.90
-37.63
-29.77
-19.32
-7.81
3.15
12.21
18.62
22.23
23.45
23.02
21.71
20.06
18.26
16.11
13.11
8.69
2.48
-5.50
-14.78
-24.59
-34.09
-42.62
-49.98
-56.46
-62.69
-69.45
-77.32
-86.46
-96.56
-106.95
-117.02
-126.48
-135.61
-145.10
-155.61
-167.27
-179.22
-189.60
-195.82
-195.12
-185.26
-165.22
-135.64
-99.01
-59.38
-21.50
10.29
33.19
46.49
51.50
50.84
47.37
43.46
40.67
39.76
41.09
44.97
51.64
61.27
73.68
88.05
102.92
116.46
126.86
132.94
134.53
132.41
127.88
122.12
115.71
108.66
100.76
92.01
82.87
74.06
66.13
59.10
52.39
45.14
36.74
27.12
16.77
6.27
-4.16
-14.95
-26.75
-39.70
-52.98
-64.85
-73.48
-78.07
-79.12
-77.86
-74.90
-69.09
-58.11
-40.07
-15.59
11.57
35.22
49.41
51.10
41.04
23.05
1.75
-19.18
-37.68
-52.72
-63.76
-70.30
-71.75
-68.06
-59.41
-46.03
-27.74
-4.05
25.22
59.31
96.02
132.34
165.03
191.93
212.45
227.42
238.46
247.12
254.40
260.73
265.92
268.99
268.80
263.97
253.10
235.41
211.30
182.86
153.68
127.53
106.34
89.28
72.73
52.11
24.66
-8.91
-44.46
-76.32
-100.00
-114.46
-122.48
-129.06
-139.32
-156.35
-180.16
-207.94
-234.60
-253.73
-259.03
-246.04
-214.14
-167.47
-114.61
-66.61
-33.27
-19.54
-23.63
-38.30
-54.39
-65.02
-68.11
-65.85
-62.24
-60.44
-61.33
-64.07
-67.52
-70.79
-72.55
-69.81
-57.55
-30.81
11.60
64.59
117.27
156.75
173.91
167.33
143.18
112.13
84.39
66.45
60.13
63.67
73.25
83.83
89.34
83.09
59.30
15.40
-46.02
-116.80
-185.34
-240.06
-272.75
-280.69
-266.45
-235.91
-195.65
-150.89
-104.43
-57.18
-9.09
39.77
88.14
133.52
172.74
203.06
222.85
232.13
232.16
225.05
213.34
199.60
186.25
175.29
167.74
163.00
158.64
150.93
136.42
113.60
83.73
50.50
18.56
-8.26
-27.80
-39.28
-42.50
-37.39
-24.33
-4.99
17.29
38.27
54.39
64.13
68.68
71.26
75.60
84.56
99.09
117.93
137.82
154.12
162.07
158.52
143.40
119.92
93.17
67.93
46.69
29.29
14.21
0.32
-12.27
-22.68
-30.61
-37.06
-44.04
-53.50
-66.14
-81.28
-97.49
-113.22
-127.56
-140.07
-150.59
-159.20
-166.54
-173.66
-181.73
-191.09
-200.31
-205.95
-202.98
-186.56
-153.88
-105.95
-48.08
10.96
61.74
97.31
115.41
118.47
111.70
100.34
87.69
74.83
61.72
48.28
34.66
20.74
5.86
-10.51
-27.62
-43.13
-54.69
-62.05
-68.24
-78.17
-95.12
-117.19
-136.80
-143.78
-130.97
-98.71
-54.54
-9.72
25.72
46.23
50.65
40.10
16.66
-16.94
-57.30
-99.09
-136.31
-165.11
-185.61
-202.49
-221.84
-247.38
-278.77
-313.25
-345.93
-371.88
-387.37
-389.15
-376.51
-350.44
-313.34
-269.86
-227.59
-192.14
-165.35
-145.13
-125.97
-104.50
-79.50
-51.39
-22.89
0.36
14.99
21.24
22.67
25.81
33.29
44.23
55.19
78.08
114.60
158.44
199.99
221.07
226.94
224.33
215.60
205.78
194.03
176.29
151.04
120.46
89.05
62.97
44.37
32.79
27.76
27.33
28.26
28.76
28.17
25.69
20.75
10.80
-6.16
-20.79
-23.31
-8.15
23.06
63.13
104.07
137.99
164.95
185.13
198.46
203.13
196.94
178.70
150.38
117.17
86.51
65.41
57.36
62.08
73.86
84.14
85.09
73.28
50.98
24.51
1.10
-14.82
-22.23
-23.51
-21.67
-18.18
-12.06
-1.19
15.47
36.95
60.29
82.97
104.18
125.03
146.62
167.85
184.43
189.91
178.62
148.53
102.76
49.13
-2.46
-43.19
-67.81
-75.32
-68.57
-52.94
-34.98
-21.09
-16.25
-23.14
-42.09
-71.24
-107.42
-147.24
-188.33
-229.68
-271.06
-311.46
-347.45
-372.78
-379.40
-360.54
-314.20
-244.99
-163.53
-83.22
-16.02
31.05
56.98
66.10
65.83
64.25
67.94
80.68
102.86
131.80
162.62
189.44
206.70
210.04
197.20
168.65
127.97
81.65
38.00
5.27
-10.90
-9.30
6.41
29.24
51.55
67.64
75.30
75.57
71.37
65.89
61.30
58.24
56.15
54.03
50.97
46.61
41.07
34.74
28.09
21.61
15.78
11.05
7.65
5.38
3.54
1.11
-2.81
-8.49
-15.36
-22.22
-27.77
-31.33
-33.16
-34.46
-36.81
-41.63
-49.60
-60.16
-71.63
-81.44
-87.10
-87.29
-82.87
-77.15
-74.88
-80.19
-94.28
-114.27
-133.74
-145.08
-142.82
-125.85
-97.97
-66.02
-37.05
-15.79
-3.64
0.71
-0.07
-3.34
-6.75
-8.29
-6.34
-0.48
7.66
14.35
14.95
5.96
-13.05
-38.88
-65.72
-87.13
-98.03
-95.46
-78.64
-48.51
-7.54
39.90
87.41
127.11
151.28
154.43
135.38
98.08
51.09
5.69
-27.16
-40.13
-31.77
-7.11
24.45
52.54
69.42
72.15
62.57
45.61
27.17
12.57
5.83
9.38
23.96
48.24
78.92
111.23
140.04
161.32
173.09
175.49
170.14
159.40
145.54
130.24
114.13
96.43
75.47
50.19
21.69
-6.05
-27.28
-37.21
-34.94
-24.62
-13.99
-11.10
-20.66
-42.25
-71.02
-100.25
-124.16
-139.54
-145.70
-143.27
-133.17
-116.16
-93.11
-65.31
-34.88
-4.54
22.76
44.42
58.82
65.69
66.11
62.18
56.46
51.10
47.05
43.68
39.28
31.97
20.82
6.37
-9.37
-23.58
-33.40
-36.48
-31.36
-17.70
3.26
28.44
53.09
71.71
79.63
74.26
55.72
26.19
-11.14
-53.11
-96.92
-140.14
-180.57
-216.19
-245.42
-266.76
-278.62
-279.57
-269.26
-249.50
-224.44
-199.33
-177.95
-160.24
-141.68
-115.17
-74.87
-19.95
44.03
106.64
156.18
183.60
184.63
160.31
116.25
61.35
6.46
-36.99
-59.15
-54.16
-21.92
31.20
94.05
153.92
200.37
227.55
234.63
224.27
201.05
170.88
140.86
118.58
110.30
118.14
137.93
159.84
172.08
166.05
139.99
98.92
50.98
3.31
-40.09
-77.13
-104.94
-118.49
-112.25
-84.08
-38.62
12.88
56.46
81.30
84.30
70.65
50.21
32.31
22.01
19.12
20.55
23.19
25.57
28.07
31.75
37.07
43.62
50.61
57.63
64.84
72.61
80.68
87.86
92.76
94.85
95.43
97.31
103.34
114.29
127.63
137.98
139.08
126.72
100.56
63.98
22.27
-19.85
-59.82
-96.93
-131.09
-161.41
-185.86
-202.08
-208.50
-205.02
-192.59
-172.30
-144.81
-110.40
-69.93
-25.52
19.20
59.64
91.03
109.49
112.80
100.95
76.42
43.65
8.12
-24.83
-51.04
-68.13
-75.76
-75.06
-68.32
-58.61
-49.25
-43.42
-43.71
-51.37
-65.86
-84.47
-102.46
-114.18
-114.68
-101.84
-77.78
-48.56
-22.28
-5.85
-2.78
-12.28
-30.28
-51.26
-70.16
-83.42
-89.60
-89.66
-86.55
-84.51
-87.77
-99.37
-120.12
-148.82
-183.21
-220.50
-257.36
-289.51
-311.60
-318.55
-307.43
-279.07
-238.12
-191.02
-143.21
-97.44
-53.74
-11.37
29.20
65.65
94.56
112.91
119.11
112.86
94.42
64.15
22.72
-27.62
-82.22
-134.15
-175.96
-201.94
-210.16
-202.88
-185.17
-162.93
-140.73
-120.97
-104.03
-88.94
-74.34
-59.26
-43.52
-27.82
-13.84
-3.56
1.55
1.67
-0.32
1.01
12.18
38.37
81.20
137.72
201.23
263.53
317.30
357.74
382.64
391.78
386.00
366.94
337.34
301.21
263.62
229.33
201.60
180.99
165.60
152.03
136.84
117.97
95.09
69.39
42.46
15.52
-10.99
-36.79
-61.05
-81.87
-96.51
-102.36
-98.05
-84.18
-63.42
-40.03
-18.84
-4.29
0.49
-5.66
-21.84
-45.20
-71.72
-97.24
-118.45
-133.46
-141.63
-143.29
-139.09
-129.91
-116.61
-99.88
-80.10
-57.34
-31.65
-3.66
25.16
52.46
75.53
92.24
101.52
103.55
99.26
90.13
77.90
64.65
52.70
43.93
39.10
37.12
35.48
31.07
21.80
7.49
-9.82
-27.02
-41.31
-51.28
-56.87
-58.52
-56.45
-50.26
-39.96
-26.88
-14.12
-5.46
-3.35
-7.31
-13.52
-16.52
-11.62
2.95
25.82
53.77
83.54
112.82
139.87
162.90
179.55
187.52
185.59
174.46
156.65
135.42
113.59
92.47
72.13
51.89
31.13
9.87
-11.14
-30.63
-47.62
-61.87
-74.36
-86.89
-101.41
-118.92
-138.77
-158.46
-174.29
-182.42
-179.94
-165.79
-140.97
-108.50
-72.34
-36.46
-3.95
23.47
45.37
62.31
75.45
86.30
96.33
106.66
117.54
128.01
136.05
139.23
135.82
125.67
110.40
92.86
75.98
61.74
50.63
41.90
34.24
26.59
18.46
9.95
1.41
-6.93
-15.01
-22.82
-30.16
-36.62
-41.69
-45.18
-47.37
-49.05
-51.20
-54.68
-60.02
-67.26
-76.08
-85.95
-96.34
-106.87
-117.50
-128.28
-139.13
-149.33
-157.23
-160.38
-156.12
-142.65
-120.01
-90.41
-57.98
-27.54
-3.37
11.84
17.49
14.88
6.64
-3.94
-13.57
-19.59
-20.44
-15.95
-7.33
3.17
13.10
20.80
26.06
30.31
36.03
45.89
61.74
84.26
112.73
145.52
180.32
214.42
244.83
268.76
284.39
291.50
291.83
288.49
285.01
283.97
285.98
289.56
291.74
289.20
279.53
262.40
239.90
216.34
196.89
185.60
183.75
189.12
196.71
200.55
195.78
179.89
153.13
117.86
77.51
35.74
-4.22
-39.95
-70.06
-94.15
-112.54
-125.94
-135.04
-140.52
-143.16
-144.28
-145.60
-148.68
-154.22
-161.45
-168.44
-173.02
-173.92
-171.46
-167.40
-164.13
-163.43
-165.62
-169.42
-172.60
-172.90
-168.87
-160.19
-147.79
-133.42
-119.08
-106.62
-97.42
-92.04
-90.11
-90.24
-90.05
-86.86
-78.56
-64.20
-44.30
-20.62
4.56
29.08
51.26
70.28
85.66
96.91
103.53
105.32
102.66
96.88
89.83
83.15
78.80
77.82
79.96
83.78
87.44
89.17
88.91
87.58
86.64
89.61
99.16
115.54
135.93
155.56
169.00
174.17
171.56
163.48
156.00
154.08
158.75
166.55
171.77
168.48
156.27
138.00
118.07
104.69
104.27
118.61
144.46
175.91
205.64
231.30
252.29
244.69
194.02
101.97
-12.25
-123.66
-203.69
-256.64
-291.18
-314.59
-331.58
-343.11
-346.88
-341.40
-327.81
-309.06
-290.03
-271.65
-253.81
-235.97
-214.25
-185.05
-147.87
-106.53
-67.35
-37.71
-20.24
-14.67
-18.76
-27.40
-35.61
-40.52
-42.07
-41.74
-42.14
-43.85
-47.11
-51.80
-56.28
-58.34
-56.09
-48.85
-36.69
-20.56
-0.87
21.55
45.70
70.69
95.26
117.61
132.54
135.24
123.69
100.46
70.75
40.41
14.00
-7.35
-23.65
-36.07
-46.34
-56.85
-67.88
-80.31
-94.51
-109.91
-125.26
-138.75
-148.97
-154.88
-156.21
-153.46
-148.21
-142.16
-136.62
-132.13
-128.28
-124.36
-119.58
-113.57
-106.55
-99.49
-93.26
-88.09
-83.51
-78.31
-71.24
-61.33
-48.26
-32.44
-15.08
2.33
18.44
32.20
43.10
51.04
56.26
59.15
60.20
59.85
58.54
56.77
54.88
52.97
50.82
48.19
45.08
42.24
41.04
43.09
49.45
60.11
73.86
88.83
103.24
115.85
126.06
133.30
136.53
134.22
124.77
107.59
83.63
55.42
25.98
-2.39
-29.18
-55.69
-83.86
-114.79
-147.31
-177.93
-202.07
-216.04
-218.68
-211.95
-199.89
-186.68
-174.97
-165.03
-155.41
-144.25
-130.48
-114.34
-97.05
-80.26
-65.22
-52.79
-43.10
-35.59
-28.86
-20.63
-8.20
10.81
37.57
71.35
109.03
145.36
173.95
188.84
186.52
167.33
135.95
100.15
68.27
46.12
35.14
32.31
32.26
30.25
24.36
16.00
8.67
5.88
9.25
18.08
29.76
40.90
48.73
51.91
50.74
46.89
42.66
40.27
41.21
45.93
53.81
63.50
73.43
82.25
89.01
93.27
94.88
93.86
90.25
84.08
75.48
64.82
52.91
40.73
29.21
18.79
9.30
0.24
-8.62
-16.95
-24.02
-29.39
-33.60
-38.24
-45.12
-55.06
-66.97
-78.07
-84.90
-84.98
-77.90
-65.22
-49.75
-34.10
-19.80
-7.00
5.13
17.61
30.83
43.94
54.79
60.67
59.45
50.72
36.26
19.26
2.87
-11.29
-23.53
-35.46
-48.41
-62.22
-75.24
-85.39
-91.47
-94.17
-95.57
-98.08
-103.17
-110.86
-119.88
-128.61
-136.01
-141.82
-146.51
-150.56
-153.85
-155.34
-153.23
-145.44
-130.43
-107.65
-77.87
-43.15
-6.60
28.03
56.90
76.88
86.40
86.14
79.19
70.69
67.07
74.77
98.48
139.27
193.77
254.38
311.40
356.21
383.93
394.45
391.18
378.57
359.77
336.24
308.57
277.67
245.19
212.82
181.34
150.34
119.36
89.08
61.64
39.48
23.40
11.31
-1.26
-19.02
-44.37
-75.92
-108.99
-137.87
-158.20
-168.50
-170.06
-166.24
-161.00
-157.84
-159.23
-166.14
-177.97
-192.67
-206.93
-216.97
-219.76
-214.10
-201.07
-183.59
-165.23
-148.68
-134.63
-121.69
-107.28
-89.08
-66.19
-39.63
-11.79
14.46
36.88
54.75
69.36
83.96
102.99
130.58
168.44
214.42
262.28
303.31
329.36
335.75
322.95
295.79
260.94
223.72
186.31
147.96
106.75
61.75
14.12
-33.19
-76.68
-113.77
-143.45
-166.04
-182.29
-192.96
-198.41
-198.94
-195.15
-188.12
-179.39
-170.54
-162.71
-156.28
-151.11
-146.69
-142.67
-139.17
-136.76
-135.96
-136.65
-137.90
-137.98
-134.94
-127.42
-115.16
-99.35
-82.31
-66.75
-55.05
-48.82
-48.58
-53.71
-62.77
-73.87
-85.35
-96.07
-105.09
-111.09
-111.75
-103.80
-84.40
-52.60
-10.51
37.04
84.29
126.76
162.60
192.22
216.47
234.61
243.82
240.47
222.34
190.28
148.26
101.52
54.48
9.42
-33.34
-74.16
-112.36
-145.71
-171.04
-185.66
-188.71
-181.64
-167.55
-150.03
-132.17
-116.07
-102.73
-92.33
-84.56
-78.82
-74.46
-70.95
-68.06
-66.19
-65.98
-67.44
-69.07
-67.62
-58.91
-39.20
-6.83
37.08
88.70
142.49
192.52
233.35
260.88
272.67
268.41
250.31
222.94
192.18
163.43
139.90
121.76
106.82
92.39
76.97
61.32
47.86
39.33
37.12
40.45
46.50
51.73
53.09
48.74
38.18
21.95
1.24
-22.39
-47.05
-70.75
-91.54
-107.84
-118.77
-124.21
-124.61
-120.75
-113.37
-103.11
-90.45
-75.93
-60.35
-45.05
-31.81
-22.54
-18.55
-19.90
-25.09
-31.24
-35.23
-34.88
-30.09
-22.97
-16.72
-14.09
-15.96
-21.00
-26.41
-29.19
-27.30
-20.06
-7.94
8.16
27.27
48.48
70.64
92.15
111.07
125.51
134.02
135.76
130.76
119.96
105.31
89.26
74.09
60.89
49.08
36.64
21.45
2.84
-17.46
-35.70
-47.80
-51.32
-46.77
-37.06
-25.96
-15.95
-7.15
2.23
14.20
29.12
44.62
56.04
58.33
48.40
26.94
-1.28
-29.03
-49.07
-56.67
-50.96
-34.60
-12.19
11.81
34.26
53.66
69.45
81.27
88.82
92.17
92.30
90.97
90.03
90.42
91.44
91.09
87.17
78.95
68.10
58.35
53.87
57.07
67.26
80.91
93.30
100.71
102.02
98.61
92.98
87.02
80.68
71.99
58.23
37.73
11.48
-16.52
-40.55
-55.39
-58.52
-51.23
-37.85
-23.64
-12.22
-4.30
1.90
8.81
17.36
26.37
33.36
36.55
36.69
36.87
40.80
50.44
64.27
77.71
84.99
81.89
67.78
45.83
21.47
-0.14
-16.07
-26.20
-32.37
-36.83
-41.11
-45.74
-50.67
-55.76
-61.09
-66.97
-73.79
-82.06
-92.20
-104.55
-119.40
-137.13
-158.37
-183.74
-213.17
-245.01
-275.49
-299.37
-311.39
-308.15
-289.17
-256.64
-214.08
-164.74
-110.90
-54.41
2.44
56.43
103.93
142.23
170.32
188.89
199.22
201.78
195.82
180.16
154.54
120.80
83.04
46.42
15.51
-7.15
-21.58
-29.79
-34.52
-38.11
-41.97
-46.57
-52.00
-58.41
-66.05
-74.95
-84.66
-94.24
-102.51
-108.52
-111.62
-111.32
-107.02
-97.89
-83.32
-63.36
-39.30
-13.48
11.50
33.83
53.09
70.32
87.37
105.60
124.83
142.79
155.38
157.96
147.09
122.21
86.53
46.34
9.13
-18.76
-34.05
-36.96
-30.24
-17.52
-1.94
14.42
30.18
43.88
53.48
56.31
49.50
30.71
-0.94
-44.23
-95.27
-148.20
-196.33
-233.96
-258.16
-269.64
-272.14
-271.12
-271.90
-277.99
-289.88
-304.79
-317.04
-319.59
-306.07
-273.12
-221.83
-157.59
-88.44
-22.55
33.83
77.41
107.46
124.79
130.90
127.83
118.30
105.85
94.36
86.99
85.29
88.76
95.58
103.26
109.87
114.56
117.63
119.98
122.53
125.67
129.01
131.60
132.41
130.86
127.07
121.84
116.16
110.74
105.64
100.13
93.16
83.88
72.13
58.58
44.49
31.16
19.50
9.85
2.05
-4.28
-9.50
-13.86
-17.57
-20.99
-24.54
-28.60
-33.28
-38.37
-43.36
-47.66
-50.82
-52.67
-53.42
-53.49
-53.33
-53.28
-53.41
-53.53
-53.29
-52.32
-50.38
-47.42
-43.50
-38.73
-33.24
-27.27
-21.20
-15.53
-10.68
-6.59
-2.67
2.04
8.30
16.12
24.52
31.81
36.27
36.80
33.27
26.29
16.83
5.70
-6.54
-19.56
-32.97
-46.14
-58.29
-68.57
-76.41
-81.69
-84.90
-87.06
-89.43
-93.07
-98.25
-104.26
-109.45
-111.74
-109.30
-101.12
-87.22
-68.57
-46.89
-24.27
-2.82
15.90
31.33
44.10
55.75
67.84
81.05
94.33
105.11
110.21
107.38
96.39
79.22
59.28
40.12
24.40
13.41
7.37
5.86
8.31
14.28
23.30
35.05
49.22
65.10
81.02
93.70
98.48
90.41
66.37
26.98
-22.37
-72.43
-112.68
-134.51
-133.73
-111.46
-73.08
-26.13
21.94
65.39
100.67
126.05
141.12
146.16
141.99
130.00
112.35
91.70
70.78
51.67
35.31
21.80
10.87
2.64
-2.06
-1.92
4.00
15.47
30.57
46.05
58.36
64.74
64.03
56.74
44.60
29.80
14.36
-0.18
-12.80
-22.98
-30.65
-36.14
-39.92
-42.40
-43.57
-42.89
-39.57
-33.03
-23.42
-11.58
1.11
13.46
24.82
35.25
45.20
55.15
65.30
75.40
84.85
92.60
96.97
95.62
86.05
66.67
37.99
3.27
-32.19
-62.69
-84.14
-95.22
-97.11
-92.14
-82.29
-68.55
-51.31
-31.35
-10.61
8.15
22.31
30.62
33.62
33.26
31.75
30.67
30.53
31.07
31.78
32.45
33.36
35.07
38.03
42.26
47.26
52.17
56.26
59.19
61.15
62.52
63.53
63.70
61.79
56.09
44.94
27.41
3.82
-24.12
-53.51
-80.82
-102.69
-116.68
-121.76
-118.48
-108.65
-94.62
-78.66
-62.33
-46.38
-30.94
-15.99
-1.58
12.07
24.69
36.23
46.79
56.50
65.40
73.42
80.40
86.36
91.48
95.89
99.27
100.47
97.78
89.42
74.34
52.58
25.36
-5.37
-37.37
-68.28
-95.62
-116.79
-129.42
-132.08
-124.94
-109.90
-90.10
-68.93
-48.96
-31.57
-17.00
-5.00
4.69
12.17
17.56
21.22
23.83
26.30
29.47
33.84
39.47
46.03
52.94
59.60
65.50
70.24
73.59
75.32
75.17
72.75
67.41
58.31
44.60
25.74
1.93
-25.55
-54.52
-82.40
-106.80
-126.19
-140.05
-148.74
-152.96
-153.18
-149.42
-141.31
-128.50
-111.08
-89.79
-65.89
-40.88
-16.09
7.44
29.01
48.17
64.80
79.33
92.49
104.93
116.35
125.03
127.97
122.16
106.14
81.15
50.94
20.25
-6.94
-28.69
-44.81
-55.71
-61.21
-60.19
-51.67
-36.05
-15.92
4.47
20.82
30.37
32.61
29.00
21.85
13.35
5.23
-1.15
-4.48
-3.50
2.73
14.45
31.14
51.48
73.72
95.94
116.22
132.79
144.23
149.71
149.19
143.30
132.99
118.93
101.27
79.76
54.20
25.05
-6.25
-37.52
-66.21
-90.09
-107.60
-118.02
-121.37
-118.37
-110.30
-98.81
-85.63
-72.12
-59.05
-46.68
-35.02
-24.21
-14.68
-6.89
-0.92
3.80
8.56
14.94
24.17
36.55
51.25
66.32
79.18
87.13
87.84
80.01
63.76
40.81
14.05
-13.12
-37.81
-58.21
-73.66
-84.22
-90.08
-91.20
-87.48
-79.20
-67.42
-53.87
-40.42
-28.37
-18.05
-8.98
-0.36
8.24
16.62
24.12
29.93
33.57
35.12
35.19
34.60
34.13
34.29
35.22
36.85
38.99
41.50
44.21
46.98
49.39
50.75
50.09
46.38
38.81
27.05
11.50
-6.85
-26.57
-46.11
-63.95
-78.80
-89.61
-95.63
-96.66
-92.95
-85.29
-74.77
-62.51
-49.41
-36.05
-22.82
-10.02
1.95
12.79
22.38
30.91
38.80
46.54
54.42
62.42
70.19
77.19
82.75
86.21
87.03
84.92
79.74
71.54
60.38
46.12
28.41
7.00
-17.83
-44.83
-71.55
-94.92
-112.07
-121.27
-122.39
-116.77
-106.52
-93.61
-79.34
-64.25
-48.50
-32.37
-16.48
-1.74
11.05
21.41
29.39
35.43
40.03
43.64
46.54
48.90
50.99
53.18
55.82
59.08
62.68
65.92
67.64
66.58
61.58
51.92
37.47
18.73
-3.27
-27.18
-51.49
-74.79
-95.90
-113.88
-128.03
-137.97
-143.57
-145.02
-142.74
-137.37
-129.56
-120.01
-109.41
-98.43
-87.80
-78.06
-69.50
-61.97
-55.02
-48.03
-40.63
-32.84
-25.14
-18.34
-13.05
-9.44
-6.84
-3.99
0.62
8.07
18.41
30.51
42.31
51.54
56.52
56.80
53.40
48.47
44.72
44.64
49.70
59.98
74.00
89.01
101.75
109.32
110.07
104.23
93.92
82.55
73.61
69.62
71.32
77.76
87.04
97.15
106.69
115.27
123.22
131.11
139.35
147.92
156.45
164.36
171.10
176.12
178.82
178.45
174.38
166.33
154.73
140.88
126.62
113.69
102.90
93.62
83.86
71.12
53.53
30.74
4.05
-24.11
-51.29
-75.93
-97.76
-117.51
-136.11
-154.03
-170.88
-185.64
-197.12
-204.54
-207.74
-206.90
-202.35
-194.31
-182.92
-168.56
-152.14
-135.01
-118.76
-104.75
-93.56
-85.00
-78.51
-73.61
-70.28
-68.78
-69.30
-71.45
-74.32
-76.73
-78.00
-78.40
-79.03
-80.93
-84.03
-86.63
-85.89
-79.15
-65.26
-45.25
-21.98
1.08
21.07
36.43
46.92
53.01
55.29
54.29
50.46
44.58
37.79
31.36
26.34
23.18
21.64
20.86
19.76
17.54
14.06
10.06
6.68
4.99
5.37
7.35
9.57
10.14
7.41
0.54
-9.77
-21.37
-31.40
-37.43
-38.41
-35.07
-29.48
-23.69
-18.83
-14.69
-10.17
-4.20
3.69
13.41
24.58
36.68
49.12
60.84
70.27
75.76
76.30
71.97
63.87
53.49
41.91
29.76
17.44
5.84
-3.43
-8.56
-8.36
-3.24
4.74
12.72
18.24
20.01
18.22
14.03
8.65
2.91
-3.00
-9.24
-15.85
-22.56
-28.70
-33.46
-35.96
-35.48
-31.56
-24.07
-13.32
-0.01
14.84
30.11
44.66
57.38
67.16
72.80
73.34
68.32
58.12
44.12
28.54
13.77
1.73
-6.89
-12.99
-18.59
-26.00
-36.53
-49.82
-63.68
-75.05
-81.34
-81.63
-77.03
-69.99
-62.93
-56.95
-51.49
-45.01
-36.24
-25.16
-13.03
-1.64
7.82
15.17
20.76
24.78
26.64
25.24
19.95
11.57
2.21
-5.94
-12.22
-18.11
-26.11
-37.46
-50.49
-60.70
-62.87
-54.01
-35.35
-11.90
9.91
25.22
32.44
33.07
29.84
24.93
19.06
11.95
3.41
-5.69
-13.55
-18.13
-18.07
-13.26
-4.95
4.94
14.61
23.04
30.29
37.05
44.05
51.42
58.43
63.67
65.81
64.17
59.10
51.81
43.69
35.70
28.00
19.94
10.67
-0.29
-12.76
-25.96
-38.84
-50.42
-59.97
-67.02
-71.26
-72.52
-70.75
-66.09
-58.87
-49.24
-37.02
-21.56
-2.15
21.48
48.63
77.63
106.11
131.73
152.67
167.70
176.10
177.15
169.99
153.85
128.59
95.10
55.48
12.65
-30.13
-69.77
-103.60
-129.53
-146.21
-153.26
-151.53
-143.00
-130.31
-116.10
-102.22
-89.46
-77.71
-66.46
-55.38
-44.50
-34.02
-24.05
-14.37
-4.36
6.53
18.53
31.20
43.43
53.83
61.23
65.07
65.43
62.95
58.29
51.87
43.62
33.11
20.07
4.57
-12.70
-30.63
-47.88
-63.24
-75.74
-84.64
-89.46
-89.78
-85.42
-76.57
-63.87
-48.37
-31.39
-14.14
2.51
18.20
33.06
47.38
61.30
74.53
86.48
96.37
103.66
108.21
110.33
110.71
110.03
108.75
106.75
103.18
96.47
84.59
65.64
38.66
4.47
-34.13
-72.77
-106.63
-131.81
-146.52
-151.34
-148.66
-141.61
-132.84
-123.91
-115.19
-106.33
-96.80
-86.10
-73.83
-59.53
-42.94
-24.21
-4.20
15.46
32.84
46.27
55.10
59.86
62.07
63.47
65.47
68.64
72.71
76.72
79.26
78.93
74.74
66.39
54.50
40.52
26.28
13.35
2.56
-6.31
-14.10
-21.67
-29.24
-36.23
-41.53
-44.03
-43.15
-38.88
-31.72
-22.19
-10.57
3.22
19.35
37.78
58.00
78.92
98.98
116.16
128.12
132.55
127.68
112.82
88.76
57.96
24.16
-8.20
-35.06
-53.42
-62.16
-62.07
-55.39
-44.86
-32.77
-20.34
-7.81
4.91
17.57
29.16
38.17
43.34
44.25
41.39
35.71
27.98
18.42
6.96
-6.13
-19.71
-31.68
-39.61
-41.59
-37.07
-27.01
-13.59
0.45
12.76
21.89
27.63
30.64
31.89
32.04
31.07
28.28
22.81
14.27
3.19
-9.14
-21.26
-32.16
-41.61
-49.96
-57.65
-64.83
-71.35
-77.00
-81.71
-85.64
-88.89
-91.27
-92.27
-91.19
-87.46
-80.61
-70.25
-55.83
-36.73
-12.61
16.18
48.35
81.72
113.51
140.89
161.27
172.75
174.41
166.59
150.80
129.23
103.91
76.04
46.00
14.01
-18.69
-49.14
-73.18
-86.90
-88.56
-79.59
-64.22
-47.74
-34.52
-26.65
-23.95
-24.98
-28.29
-33.11
-39.37
-47.00
-55.30
-62.93
-68.10
-69.31
-65.87
-58.16
-47.48
-35.52
-23.71
-12.81
-2.88
6.55
15.83
24.78
32.47
37.43
38.20
33.93
24.81
12.05
-2.60
-17.44
-31.17
-43.08
-52.88
-60.40
-65.63
-68.58
-69.43
-68.36
-65.58
-61.17
-55.08
-47.28
-37.91
-27.31
-15.95
-4.11
8.25
21.32
35.03
48.69
60.64
68.56
70.05
63.58
49.28
29.08
6.10
-16.37
-35.91
-51.60
-63.74
-73.19
-80.46
-85.20
-86.22
-82.17
-72.31
-57.08
-38.25
-18.45
-0.49
13.39
21.96
25.05
23.28
17.59
8.98
-1.65
-13.40
-25.32
-36.51
-46.23
-54.07
-60.00
-64.23
-66.87
-67.75
-66.43
-62.38
-55.24
-45.05
-32.20
-17.44
-1.84
13.28
26.35
35.91
40.91
41.09
36.96
29.54
19.87
8.57
-4.07
-17.71
-31.50
-44.03
-53.85
-60.48
-64.84
-69.13
-75.78
-86.24
-100.13
-115.42
-129.42
-140.03
-146.53
-149.38
-149.31
-146.31
-139.16
-125.83
-104.43
-74.35
-36.54
6.83
52.99
99.22
143.14
182.77
216.86
245.33
269.90
293.95
321.43
354.86
393.58
433.27
467.22
488.85
494.04
482.29
456.36
420.55
379.14
335.47
291.82
249.73
210.30
174.08
140.73
109.15
77.71
45.02
10.58
-24.90
-59.86
-92.30
-120.33
-142.76
-158.85
-168.22
-170.85
-167.20
-158.45
-146.30
-132.48
-118.17
-103.90
-89.93
-76.99
-66.72
-61.46
-63.44
-73.59
-91.10
-113.64
-138.34
-162.71
-185.19
-205.11
-222.06
-235.46
-244.46
-248.10
-245.78
-237.65
-224.83
-209.13
-192.74
-177.22
-163.06
-149.73
-136.04
-120.96
-104.02
-85.39
-65.78
-46.49
-29.69
-18.47
-16.10
-24.53
-42.73
-66.07
-87.43
-99.76
-98.95
-85.21
-62.63
-36.88
-12.66
7.65
23.82
36.47
45.85
51.51
52.99
50.76
46.66
43.52
43.96
49.25
58.72
70.17
80.91
89.11
94.53
98.49
103.06
109.77
118.58
127.47
133.01
131.48
120.04
97.87
66.45
29.60
-7.61
-39.92
-63.57
-76.71
-80.00
-75.80
-67.20
-57.01
-46.96
-37.36
-27.16
-14.89
0.51
18.26
35.36
47.40
50.02
41.24
22.89
0.53
-18.71
-28.85
-27.38
-15.70
2.44
22.85
42.54
59.86
73.44
81.34
80.69
68.73
44.44
10.01
-29.50
-66.97
-95.67
-111.40
-113.50
-104.41
-88.43
-69.77
-51.18
-33.81
-17.54
-2.03
12.46
25.04
34.69
40.85
43.77
44.44
43.94
43.15
42.36
41.40
40.14
38.77
37.98
38.81
42.33
49.06
58.69
69.91
80.60
88.20
90.33
85.26
72.38
52.35
26.96
-1.11
-28.77
-52.85
-70.56
-79.74
-79.29
-69.37
-51.33
-27.45
-0.74
25.59
48.49
65.35
74.72
76.67
73.19
67.70
63.58
62.38
62.77
60.93
52.55
35.32
10.33
-18.19
-44.80
-65.16
-77.37
-81.69
-79.61
-72.99
-63.75
-54.27
-47.32
-45.26
-48.59
-55.36
-61.72
-63.59
-58.74
-47.48
-32.33
-16.31
-1.36
11.92
23.59
33.55
41.06
45.36
46.67
46.50
47.23
50.99
58.41
68.32
78.36
86.19
90.65
92.27
92.65
93.46
95.67
98.85
101.47
101.34
96.16
83.89
63.91
37.11
5.81
-26.48
-56.13
-79.91
-95.57
-102.14
-100.08
-90.79
-76.34
-58.89
-40.24
-21.62
-3.62
13.56
29.59
43.77
54.96
61.79
63.13
58.61
48.80
35.12
19.70
5.04
-6.35
-12.34
-11.92
-5.79
3.59
12.35
16.45
12.93
0.97
-17.91
-40.53
-63.13
-82.49
-96.42
-103.91
-104.84
-99.68
-89.32
-74.96
-57.97
-39.74
-21.48
-4.05
12.05
26.68
39.90
51.84
62.59
72.10
80.07
85.99
89.33
89.65
86.76
80.77
71.97
60.93
48.36
35.18
22.37
10.84
1.18
-6.65
-13.32
-20.08
-28.37
-39.24
-52.92
-68.42
-83.52
-95.24
-100.60
-97.56
-85.71
-66.46
-42.71
-17.84
5.29
25.03
41.15
54.33
65.57
75.45
83.89
90.26
93.69
93.63
90.09
83.88
76.57
70.38
67.68
70.29
78.54
90.29
100.74
103.25
91.26
60.77
12.29
-48.71
-113.21
-171.34
-215.39
-241.55
-250.26
-244.75
-229.24
-207.31
-181.28
-152.52
-122.08
-91.14
-61.05
-32.97
-7.50
15.50
36.55
56.12
74.12
89.81
102.07
109.98
113.31
112.57
108.85
103.19
96.18
87.81
77.64
65.10
49.85
31.77
10.85
-12.82
-38.92
-66.66
-94.48
-120.10
-140.92
-154.68
-160.08
-157.14
-146.95
-131.33
-112.20
-91.31
-70.10
-49.69
-31.01
-14.52
-0.29
12.12
23.33
33.88
44.04
53.81
63.08
71.81
80.05
87.72
94.23
98.32
98.14
91.73
77.73
55.96
27.72
-4.16
-35.83
-62.99
-81.79
-89.67
-85.93
-71.98
-50.89
-26.65
-3.07
16.99
32.09
42.12
47.85
50.40
50.69
49.40
46.81
43.06
38.23
32.40
25.76
18.68
11.61
5.11
-0.34
-4.45
-7.15
-8.65
-9.32
-9.49
-9.51
-9.79
-10.95
-13.83
-19.40
-28.29
-40.52
-55.32
-71.25
-86.44
-99.09
-107.85
-112.07
-111.96
-108.37
-102.58
-96.19
-90.89
-88.01
-88.21
-90.92
-94.34
-95.88
-93.00
-84.02
-68.52
-47.09
-20.67
10.09
45.09
84.34
127.55
173.90
222.29
271.72
321.47
370.52
416.97
457.69
488.73
506.36
508.37
494.59
466.81
427.99
381.54
330.89
279.59
231.22
188.84
154.44
128.03
107.85
91.01
74.79
57.41
38.36
18.23
-1.72
-19.94
-34.97
-45.75
-52.11
-54.90
-55.81
-56.59
-58.16
-60.10
-60.95
-59.28
-54.91
-49.58
-46.59
-49.48
-60.73
-80.82
-108.25
-139.76
-171.12
-198.12
-217.49
-227.88
-230.16
-226.98
-221.47
-216.03
-211.43
-207.08
-202.23
-196.87
-192.11
-189.54
-189.94
-192.46
-195.12
-195.93
-194.03
-190.20
-186.01
-182.85
-181.14
-180.16
-178.63
-175.34
-169.73
-161.77
-151.81
-139.94
-125.88
-108.93
-88.22
-63.33
-34.87
-4.87
23.55
47.11
63.73
73.41
78.12
80.59
82.84
85.31
87.21
87.45
85.71
82.74
79.79
77.79
76.88
76.62
76.79
78.02
81.93
90.52
105.26
126.20
151.26
176.15
195.28
203.43
197.75
178.82
150.38
117.85
86.27
58.85
36.57
19.04
5.56
-4.41
-11.53
-17.25
-23.62
-32.67
-45.11
-59.88
-74.45
-86.36
-94.47
-99.39
-103.02
-107.15
-112.47
-118.11
-122.11
-122.64
-119.18
-112.94
-106.16
-101.17
-99.24
-100.32
-103.24
-106.45
-108.80
-109.99
-110.35
-110.23
-109.45
-107.34
-103.13
-96.51
-87.97
-78.72
-70.07
-62.85
-57.08
-52.10
-47.01
-41.24
-34.76
-28.00
-21.62
-16.14
-11.73
-8.15
-4.90
-1.33
3.02
8.22
13.81
18.78
21.85
21.78
17.92
10.46
0.63
-9.56
-17.79
-22.15
-21.85
-17.54
-11.15
-5.25
-1.92
-2.06
-5.14
-9.56
-13.49
-15.52
-14.97
-11.78
-6.17
1.83
12.25
25.09
40.06
56.55
73.73
90.71
106.59
120.32
130.58
135.68
133.79
123.40
104.00
76.61
43.80
9.27
-23.09
-50.22
-70.46
-83.61
-90.47
-92.20
-89.75
-83.79
-74.75
-63.18
-49.83
-35.62
-21.41
-7.83
4.77
16.33
27.04
37.19
47.10
57.05
67.15
77.28
87.11
96.11
103.65
109.02
111.49
110.30
104.80
94.67
80.10
61.87
41.19
19.40
-2.44
-23.55
-43.40
-61.54
-77.37
-90.11
-98.99
-103.40
-103.01
-97.93
-88.65
-76.10
-61.64
-46.92
-33.56
-22.61
-14.11
-6.94
0.66
10.50
23.69
40.18
58.93
78.31
96.68
112.62
125.01
132.86
135.30
131.50
120.68
102.30
76.17
42.95
4.35
-36.55
-75.72
-108.85
-132.51
-145.05
-146.78
-139.73
-126.65
-110.23
-92.60
-75.27
-59.30
-45.46
-34.21
-25.55
-19.00
-13.75
-8.78
-3.11
4.13
13.39
24.76
37.92
52.18
66.58
80.09
91.79
100.93
106.94
109.24
107.21
100.17
87.61
69.36
45.87
18.40
-11.03
-39.90
-65.60
-85.88
-99.27
-105.23
-104.11
-96.99
-85.37
-70.88
-55.07
-39.23
-24.33
-10.92
0.81
11.04
20.03
28.01
35.14
41.56
47.56
53.57
60.02
67.11
74.50
81.33
86.53
89.12
88.23
82.82
71.45
52.46
24.94
-10.05
-48.79
-85.26
-113.03
-127.51
-127.59
-115.76
-96.70
-75.22
-54.54
-35.90
-19.18
-4.03
9.43
20.69
29.31
35.45
39.85
43.61
47.40
51.29
54.66
56.72
57.14
56.35
55.45
55.70
57.89
61.87
66.68
70.88
73.01
71.95
66.88
57.24
42.79
23.72
0.94
-23.80
-48.10
-69.42
-85.61
-95.33
-98.24
-94.66
-85.34
-71.19
-53.20
-32.49
-10.31
11.90
32.78
51.23
66.50
78.16
85.97
89.70
89.23
84.72
77.02
67.69
58.98
53.24
52.38
57.11
66.58
78.32
88.60
93.24
88.41
71.81
43.46
6.13
-35.11
-74.03
-105.10
-124.87
-132.67
-130.22
-120.44
-106.14
-89.21
-70.67
-51.13
-31.36
-12.57
4.00
17.58
28.17
36.42
43.28
49.42
54.96
59.46
62.08
61.89
58.21
50.81
39.99
26.70
12.51
-0.50
-10.21
-15.03
-14.51
-9.73
-3.09
2.31
3.59
-0.98
-11.44
-26.11
-42.11
-56.05
-65.01
-67.36
-63.00
-53.26
-40.23
-25.86
-11.44
2.60
16.33
29.75
42.34
53.20
61.41
66.54
68.83
69.00
67.94
66.40
64.97
64.17
64.28
65.07
65.38
63.09
55.42
39.84
15.19
-17.69
-55.85
-94.89
-130.08
-157.49
-174.47
-180.03
-174.58
-159.63
-137.34
-110.19
-80.65
-50.83
-22.48
3.29
25.88
45.07
60.87
73.43
83.09
90.24
95.47
99.23
101.85
103.43
103.85
102.93
100.49
96.58
91.41
85.37
78.78
71.83
64.37
55.80
45.06
30.64
11.00
-14.96
-47.18
-83.95
-121.85
-156.14
-181.84
-194.76
-192.56
-175.10
-144.45
-104.18
-58.69
-12.40
30.84
68.03
97.34
118.04
130.47
135.78
135.66
131.93
126.08
119.20
111.92
104.60
97.47
90.72
84.43
78.33
71.86
64.08
53.87
39.96
21.03
-4.21
-36.55
-75.58
-119.10
-162.92
-201.69
-230.33
-245.63
-247.06
-236.49
-217.00
-191.41
-161.53
-128.20
-92.13
-54.64
-17.87
15.79
44.58
67.91
86.34
101.10
113.37
123.73
132.03
137.69
139.98
138.55
133.46
125.22
114.62
102.50
89.57
76.32
62.94
49.33
35.11
19.78
2.88
-15.71
-35.55
-55.55
-74.00
-88.93
-98.47
-101.36
-97.23
-86.75
-71.40
-53.25
-34.42
-16.70
-1.24
11.43
21.39
29.07
35.07
40.01
44.46
48.79
53.12
57.25
60.59
62.41
62.05
59.29
54.61
49.13
44.35
41.61
41.39
42.76
43.28
39.46
27.90
6.59
-23.94
-60.33
-97.17
-128.52
-149.81
-159.00
-156.75
-145.56
-128.53
-108.30
-86.55
-64.31
-42.37
-21.71
-3.42
11.52
22.69
30.32
35.16
38.11
39.85
40.76
40.98
40.67
40.12
39.71
39.66
39.86
39.76
38.55
35.50
30.25
22.98
14.18
4.41
-5.96
-16.81
-28.11
-39.71
-51.03
-61.04
-68.42
-72.06
-71.40
-66.71
-58.89
-49.20
-38.77
-28.31
-18.23
-8.86
-0.77
5.23
8.35
8.13
4.74
-1.01
-7.90
-14.70
-20.45
-24.56
-26.83
-27.24
-25.81
-22.50
-17.26
-10.11
-1.40
8.07
17.11
24.15
27.69
26.60
20.52
10.08
-3.13
-16.83
-28.62
-36.54
-39.62
-38.00
-32.66
-24.81
-15.39
-4.84
6.72
19.22
32.28
45.11
56.71
66.15
72.75
76.26
76.76
74.55
70.10
63.94
56.57
48.51
40.29
32.41
25.52
20.16
16.60
14.60
13.12
10.58
5.38
-3.43
-15.73
-30.16
-44.56
-56.71
-64.86
-68.08
-66.23
-59.63
-48.99
-35.28
-19.61
-3.36
12.03
25.23
35.17
41.31
43.64
42.71
39.47
35.14
30.82
27.29
24.97
23.94
24.16
25.55
28.12
31.84
36.50
41.57
46.08
48.79
48.17
42.85
31.94
15.52
-5.17
-27.74
-49.29
-67.10
-79.42
-85.85
-87.11
-84.43
-78.84
-70.82
-60.33
-47.29
-32.08
-15.67
0.53
15.27
27.75
37.78
45.54
51.27
55.10
56.96
56.95
55.38
52.86
50.10
47.73
46.11
45.24
44.90
44.53
43.49
40.94
36.10
28.32
17.34
3.38
-12.84
-30.15
-47.19
-62.48
-74.79
-83.20
-87.29
-87.30
-84.01
-78.68
-72.63
-67.10
-62.73
-59.62
-57.22
-54.47
-50.26
-43.71
-34.54
-23.18
-10.63
1.90
13.37
23.20
31.37
38.24
44.34
50.07
55.60
60.81
65.33
68.54
69.64
67.83
62.61
54.09
43.22
31.81
22.10
16.14
15.03
18.50
24.95
31.96
37.11
38.57
35.66
28.84
19.52
9.62
1.10
-4.47
-6.19
-3.86
2.16
11.32
23.14
37.32
53.70
72.07
91.93
112.65
133.49
153.55
171.77
186.72
196.96
201.40
199.73
192.61
181.42
167.68
152.37
135.67
117.27
97.10
76.03
55.91
38.99
27.05
20.69
19.08
20.43
22.82
24.93
26.19
26.64
26.46
25.59
23.92
21.39
18.57
16.53
16.48
19.29
25.01
32.84
41.40
49.35
55.87
60.92
65.00
68.74
72.38
75.43
76.58
74.03
66.03
51.56
30.79
5.08
-23.39
-52.16
-79.14
-102.91
-122.85
-138.85
-150.98
-159.26
-163.58
-163.86
-160.36
-153.84
-145.41
-136.13
-126.55
-116.49
-105.28
-92.28
-77.37
-61.06
-44.28
-27.96
-12.86
0.13
9.99
15.63
16.09
11.04
0.89
-13.02
-28.66
-43.96
-57.25
-67.33
-73.75
-76.90
-78.06
-79.04
-81.52
-86.22
-92.91
-101.07
-109.91
-118.79
-127.31
-135.24
-142.37
-148.35
-152.63
-155.20
-158.14
-163.51
-172.16
-182.70
-191.97
-196.63
-194.90
-186.88
-175.42
-167.33
-167.83
-178.35
-195.94
-215.36
-232.07
-244.01
-250.35
-252.61
-257.43
-269.72
-290.94
-318.42
-347.42
-373.76
-395.24
-409.89
-418.44
-428.26
-444.63
-468.85
-497.52
-525.75
-550.53
-572.32
-591.84
-568.97
-478.17
-315.29
-104.07
118.03
319.93
485.96
602.44
682.14
735.18
760.68
757.03
725.72
673.70
611.68
549.60
492.75
444.50
403.30
360.02
307.16
242.95
173.99
112.83
73.17
62.48
82.24
125.04
173.56
209.32
218.74
197.31
149.34
85.43
15.71
-49.72
-93.55
-102.71
-73.60
-15.50
55.24
117.25
169.31
212.96
248.71
275.03
287.77
283.04
260.16
222.99
179.10
138.04
106.09
87.02
81.55
85.90
93.34
96.69
90.89
74.16
48.36
15.58
-21.31
-58.82
-94.12
-124.71
-148.34
-163.25
-168.93
-166.20
-158.06
-147.46
-135.96
-124.24
-112.78
-102.81
-96.32
-95.48
-101.16
-112.86
-128.41
-144.76
-159.42
-170.97
-178.90
-182.95
-182.77
-177.79
-167.85
-153.41
-135.48
-115.53
-95.11
-75.42
-57.01
-39.68
-22.46
-4.39
15.00
34.68
52.14
64.04
67.24
60.00
42.52
16.94
-13.68
-46.16
-77.29
-103.97
-123.07
-132.39
-131.72
-123.29
-111.10
-99.25
-90.37
-84.96
-82.29
-81.54
-82.21
-83.44
-82.87
-76.34
-59.27
-29.08
12.98
61.63
110.01
152.48
186.97
214.47
237.05
255.83
269.97
277.40
276.27
266.30
249.14
227.56
204.56
182.33
161.94
143.58
127.07
112.31
99.53
88.93
80.40
73.21
66.20
58.25
48.83
38.28
27.68
18.40
11.52
7.37
5.46
4.68
3.80
1.87
-1.53
-6.35
-12.34
-19.24
-26.81
-34.69
-42.22
-48.37
-51.92
-51.95
-48.10
-40.88
-31.36
-20.98
-11.05
-2.51
4.22
9.18
12.68
15.01
16.31
16.51
15.38
12.69
8.30
2.27
-5.08
-13.17
-21.29
-28.82
-35.54
-41.68
-47.84
-54.51
-61.80
-69.16
-75.39
-79.02
-78.72
-73.66
-63.79
-49.72
-32.63
-14.00
4.57
21.50
35.51
45.78
51.91
53.75
51.20
44.15
32.66
17.30
-0.64
-19.32
-36.93
-52.06
-64.35
-74.46
-83.53
-92.50
-101.65
-110.34
-117.60
-122.75
-125.72
-127.34
-128.74
-130.62
-132.40
-132.06
-126.72
-114.04
-93.42
-66.15
-35.17
-3.99
24.39
48.03
65.68
76.50
79.72
75.15
64.73
51.76
40.03
32.12
28.28
26.24
23.24
17.36
9.16
3.24
4.98
17.48
39.69
66.82
92.00
110.51
120.05
120.46
115.12
107.28
98.71
90.24
83.24
79.17
81.81
93.78
115.16
146.78
187.80
234.96
283.19
327.23
361.68
385.69
400.46
388.92
342.28
263.96
168.15
70.84
-8.57
-73.74
-129.35
-177.52
-218.24
-247.98
-262.82
-263.14
-254.08
-241.51
-231.74
-225.03
-218.32
-208.48
-193.77
-173.97
-151.21
-127.99
-104.90
-82.03
-56.74
-27.61
3.55
33.78
59.31
76.46
83.31
80.52
69.80
54.65
37.96
21.20
5.95
-6.03
-13.27
-14.94
-11.40
-4.69
2.76
8.36
9.93
6.70
-0.89
-11.61
-23.72
-35.21
-44.35
-49.91
-51.95
-51.79
-51.52
-53.24
-58.51
-68.20
-82.56
-101.72
-125.72
-154.25
-186.25
-219.52
-251.00
-277.59
-296.89
-307.94
-311.25
-308.32
-300.89
-290.00
-275.35
-255.46
-228.19
-191.79
-145.77
-91.48
-32.00
28.30
84.48
131.80
166.32
185.69
189.47
179.45
159.60
135.34
112.32
94.95
85.25
82.82
85.58
91.13
97.82
105.25
114.11
125.23
138.67
153.03
165.21
170.98
165.97
147.07
113.78
68.73
17.29
-33.66
-77.32
-108.60
-124.71
-125.17
-111.24
-85.16
-49.84
-8.74
34.29
75.37
111.16
139.50
159.74
172.72
180.22
184.12
185.79
185.60
183.28
178.48
171.32
162.51
153.20
144.50
137.23
131.92
128.88
128.15
129.39
131.86
134.52
136.39
136.96
136.28
134.83
133.12
131.44
129.56
127.02
123.16
117.26
108.32
95.18
76.88
53.23
25.27
-4.75
-33.73
-58.61
-77.35
-89.52
-96.08
-98.36
-96.85
-90.77
-78.64
-59.51
-34.25
-5.79
21.86
45.12
62.04
72.57
77.79
78.84
76.36
70.57
61.96
51.89
42.43
35.51
32.05
31.50
31.98
31.03
26.37
16.63
1.77
-17.14
-38.50
-60.75
-82.61
-102.91
-120.10
-132.16
-137.03
-133.61
-122.86
-108.02
-93.88
-85.31
-85.67
-95.75
-113.70
-136.05
-159.12
-180.33
-198.71
-214.31
-227.12
-235.88
-238.06
-230.60
-211.63
-181.69
-143.93
-102.66
-61.34
-21.43
17.16
54.29
87.73
112.99
125.29
122.67
108.12
89.38
75.97
74.88
86.96
106.29
122.78
126.99
114.30
86.48
50.25
13.77
-17.01
-40.15
-57.07
-70.12
-80.43
-86.92
-87.38
-80.39
-66.35
-47.15
-24.86
-0.29
27.15
58.47
93.52
129.65
161.67
182.81
186.70
169.48
131.39
76.82
13.19
-51.09
-108.59
-154.26
-186.05
-204.32
-210.75
-207.13
-194.86
-175.07
-149.13
-118.80
-86.12
-53.23
-22.38
4.20
24.75
38.58
46.23
49.18
49.21
47.90
46.38
45.15
44.39
44.26
44.95
46.43
47.40
45.38
37.75
23.04
1.78
-23.46
-49.15
-71.49
-86.16
-90.53
-84.91
-72.30
-56.71
-41.50
-28.29
-16.65
-3.87
14.07
39.26
70.65
103.98
133.44
153.82
162.79
161.70
150.41
131.90
108.97
83.47
56.36
28.71
2.45
-19.64
-34.96
-42.26
-41.89
-37.02
-32.48
-33.24
-42.43
-60.23
-83.85
-108.42
-128.74
-139.98
-139.72
-127.84
-106.08
-77.43
-45.92
-16.46
6.28
18.62
19.80
11.71
-1.53
-15.04
-24.94
-29.46
-29.04
-24.80
-17.30
-5.95
9.91
29.84
51.26
69.90
81.73
84.36
78.40
66.55
52.26
37.92
23.99
9.79
-5.32
-20.57
-33.61
-41.31
-41.48
-33.84
-20.35
-4.86
8.66
17.51
21.44
22.56
24.22
29.34
39.13
52.79
67.68
80.29
87.24
86.12
76.15
58.85
38.04
18.99
7.12
5.83
15.28
31.94
49.75
62.25
65.00
57.12
41.41
23.02
7.18
-2.55
-5.39
-2.84
2.26
7.15
9.80
9.12
4.76
-3.38
-15.06
-29.62
-45.94
-62.81
-79.31
-95.20
-110.67
-126.02
-141.42
-156.91
-172.60
-188.97
-206.51
-225.11
-243.54
-259.23
-269.05
-270.56
-262.95
-247.37
-226.18
-201.60
-174.64
-144.61
-109.70
-67.80
-17.80
39.58
101.38
162.58
216.82
257.51
279.37
279.78
259.82
223.94
178.59
129.96
81.98
35.67
-10.11
-56.68
-103.67
-148.25
-186.01
-212.77
-226.30
-226.83
-216.23
-196.66
-169.58
-135.83
-96.55
-54.20
-12.58
24.23
53.39
74.63
90.17
103.64
118.43
136.39
157.31
179.29
199.53
215.28
