1500365956.00
64.000000
-0.00
-0.00
-0.00
-0.00
-0.00
-0.00
-0.00
-0.00
-0.00
-0.00
0.00
0.01
0.01
-0.00
-0.03
-0.05
-0.05
0.00
0.13
0.36
0.66
1.01
1.37
1.72
2.06
2.40
2.79
3.24
3.80
4.42
5.06
5.66
6.20
6.68
7.15
7.68
8.31
9.14
10.09
11.04
11.88
12.56
13.14
13.76
14.65
15.96
17.91
20.32
22.90
25.38
27.58
29.57
31.68
34.32
37.81
42.54
48.15
54.10
59.83
64.97
69.58
74.14
79.34
85.71
93.76
103.00
112.62
121.73
129.77
136.75
143.30
150.75
157.77
166.64
177.95
191.79
206.97
220.57
228.25
225.36
208.53
176.87
132.76
80.05
23.07
-34.94
-92.44
-149.16
-205.23
-260.37
-313.74
-363.87
-409.83
-450.91
-486.50
-515.74
-537.23
-549.22
-549.96
-538.37
-514.21
-478.67
-433.88
-382.45
-327.02
-269.84
-212.63
-156.66
-102.96
-52.38
-5.90
35.60
71.46
101.39
125.51
144.32
158.53
168.88
176.00
180.32
182.13
181.64
179.11
174.84
169.22
162.66
155.51
148.07
140.51
132.91
125.29
117.64
109.97
102.31
94.72
87.33
80.24
73.54
67.28
61.40
55.78
50.29
44.84
39.46
34.27
29.49
25.30
21.76
18.73
15.94
13.07
9.89
6.42
2.95
-0.11
-2.38
-3.73
-4.38
-4.85
-5.70
-7.35
-9.80
-12.62
-15.18
-16.90
-17.51
-17.19
-16.53
-16.19
-16.82
-18.85
-22.35
-26.89
-31.36
-34.06
-33.01
-26.69
-14.79
1.25
18.52
33.53
43.49
47.32
45.86
41.24
35.83
31.27
28.08
25.94
24.23
22.55
20.88
19.37
18.09
16.92
15.52
13.63
11.31
8.91
6.87
5.60
5.13
5.15
5.08
4.31
2.52
-0.08
-2.73
-4.37
-3.99
-1.18
3.67
9.39
14.50
17.74
18.59
17.23
14.45
11.12
7.92
5.19
3.04
1.55
0.89
1.22
2.56
4.78
7.48
10.18
12.47
14.06
14.92
15.12
14.77
13.90
12.51
10.58
8.14
5.40
2.44
-0.58
-3.56
-6.50
-9.46
-12.53
-15.65
-18.62
-20.98
-22.19
-21.71
-19.33
-15.29
-10.28
-5.25
-1.14
1.45
2.30
1.57
-0.29
-2.82
-5.52
-7.96
-9.78
-10.75
-10.85
-10.26
-9.27
-8.12
-6.95
-5.77
-4.62
-3.61
-3.00
-2.98
-3.63
-4.74
-5.88
-6.69
-7.01
-6.98
-6.91
-7.06
-7.49
-8.09
-8.70
-9.23
-9.65
-9.84
-9.42
-7.83
-4.51
0.71
7.35
14.37
20.59
25.04
27.31
27.54
26.22
23.89
20.97
17.78
14.28
10.83
7.91
5.90
4.96
4.95
5.53
6.27
6.85
7.05
6.82
6.14
5.01
3.41
1.38
-1.01
-3.64
-6.41
-9.19
-11.85
-14.32
-16.70
-19.20
-22.18
-25.86
-30.16
-34.50
-37.82
-38.85
-36.62
-30.84
-22.07
-11.53
-0.75
8.96
16.76
22.30
25.68
27.18
27.14
25.93
23.95
21.62
19.34
17.42
16.02
15.12
14.57
14.16
13.72
13.15
12.43
11.55
10.45
9.07
7.26
4.91
1.96
-1.52
-5.31
-9.12
-12.68
-15.83
-18.62
-21.31
-24.22
-27.51
-30.93
-33.80
-35.15
-34.05
-29.96
-22.97
-13.87
-3.84
5.78
13.91
19.87
23.47
24.88
24.53
22.97
20.75
18.38
16.26
14.63
13.61
13.17
13.19
13.49
13.84
14.01
13.79
13.00
11.56
9.50
6.95
4.11
1.22
-1.58
-4.22
-6.76
-9.35
-12.14
-15.25
-18.75
-22.59
-26.59
-30.39
-33.37
-34.80
-33.94
-30.36
-24.10
-15.80
-6.56
2.42
10.13
16.04
20.10
22.53
23.58
23.41
22.15
20.01
17.43
14.99
13.20
12.35
12.31
12.71
13.09
13.19
12.95
12.42
11.62
10.41
8.55
5.94
2.71
-0.78
-4.08
-6.86
-9.07
-10.93
-12.79
-15.05
-17.94
-21.52
-25.60
-29.68
-32.98
-34.58
-33.65
-29.76
-23.13
-14.54
-5.23
3.61
11.02
16.54
20.12
21.95
22.37
21.74
20.41
18.74
17.07
15.68
14.72
14.19
13.99
13.95
13.89
13.67
13.23
12.51
11.48
10.10
8.30
6.02
3.27
0.14
-3.12
-6.26
-9.06
-11.42
-13.48
-15.49
-17.80
-20.70
-24.34
-28.55
-32.83
-36.32
-38.04
-37.14
-33.25
-26.66
-18.27
-9.34
-1.01
5.98
11.37
15.28
17.95
19.53
20.07
19.64
18.41
16.74
15.07
13.76
13.02
12.78
12.81
12.81
12.56
12.03
11.33
10.65
10.07
9.56
8.91
7.88
6.26
4.02
1.31
-1.61
-4.45
-6.96
-9.05
-10.74
-12.24
-13.86
-15.95
-18.75
-22.17
-25.73
-28.53
-29.55
-28.00
-23.60
-16.76
-8.39
0.39
8.59
15.60
21.17
25.27
27.92
29.07
28.72
26.91
23.98
20.51
17.22
14.73
13.33
12.90
13.02
13.15
12.90
12.20
11.25
10.35
9.72
9.27
8.67
7.50
5.41
2.37
-1.36
-5.32
-9.01
-12.07
-14.38
-16.04
-17.29
-18.38
-19.45
-20.59
-21.84
-23.30
-25.01
-26.76
-28.02
-27.97
-25.80
-21.10
-14.11
-5.72
2.85
10.50
16.55
20.78
23.24
24.06
23.32
21.14
17.86
14.02
10.30
7.20
4.94
3.41
2.27
1.20
-0.00
-1.34
-2.71
-3.98
-5.15
-6.32
-7.71
-9.52
-11.89
-14.76
-17.92
-21.06
-23.93
-26.38
-28.46
-30.40
-32.46
-34.86
-37.57
-40.25
-42.30
-42.93
-41.41
-37.35
-30.83
-22.46
-13.21
-4.15
3.77
9.95
14.17
16.52
17.30
16.90
15.75
14.31
13.04
12.32
12.41
13.30
14.71
16.18
17.24
17.57
17.13
16.13
14.82
13.38
11.79
9.89
7.52
4.63
1.32
-2.22
-5.83
-9.50
-13.39
-17.74
-22.67
-27.96
-32.96
-36.72
-38.25
-36.86
-32.47
-25.59
-17.19
-8.32
0.21
7.90
14.48
19.77
23.58
25.69
26.08
25.00
22.92
20.46
18.15
16.31
15.04
14.24
13.74
13.35
12.92
12.33
11.39
9.97
7.96
5.33
2.20
-1.26
-4.85
-8.40
-11.82
-15.09
-18.32
-21.71
-25.56
-30.05
-35.14
-40.25
-44.35
-46.18
-44.67
-39.43
-30.97
-20.53
-9.72
0.08
8.02
13.88
17.87
20.32
21.52
21.65
20.84
19.36
17.59
15.98
14.91
14.50
14.58
14.82
14.84
14.40
13.37
11.70
9.38
6.43
2.97
-0.71
-4.25
-7.30
-9.71
-11.63
-13.39
-15.44
-18.11
-21.57
-25.68
-29.98
-33.59
-35.41
-34.31
-29.62
-21.38
-10.47
1.63
13.33
23.42
31.24
36.71
39.97
41.24
40.69
38.57
35.28
31.38
27.48
24.02
21.18
18.82
16.62
14.20
11.31
7.81
3.70
-0.98
-6.09
-11.41
-16.62
-21.34
-25.28
-28.36
-30.76
-32.94
-35.40
-38.57
-42.58
-47.07
-51.26
-53.99
-54.10
-50.69
-43.59
-33.37
-21.30
-8.91
2.46
12.00
19.43
24.86
28.51
30.59
31.29
30.81
29.51
27.78
26.01
24.45
23.22
22.34
21.82
21.61
21.58
21.52
21.09
20.01
18.12
15.50
12.35
8.98
5.55
2.08
-1.60
-5.70
-10.43
-15.88
-21.98
-28.47
-34.82
-40.22
-43.64
-44.06
-40.79
-33.76
-23.59
-11.52
0.98
12.54
22.21
29.50
34.27
36.56
36.52
34.45
30.85
26.44
22.00
18.24
15.61
14.16
13.67
13.76
14.03
14.16
13.89
13.03
11.45
9.13
6.16
2.83
-0.53
-3.60
-6.22
-8.46
-10.56
-12.92
-15.95
-19.95
-24.96
-30.66
-36.33
-40.89
-43.17
-42.25
-37.74
-29.93
-19.70
-8.22
3.29
13.87
22.90
30.00
34.99
37.88
38.86
38.34
36.90
35.17
33.67
32.63
32.02
31.59
31.02
30.11
28.80
27.23
25.62
24.10
22.65
21.04
18.94
16.05
12.29
7.85
3.18
-1.27
-5.13
-8.33
-11.07
-13.81
-17.06
-21.25
-26.49
-32.42
-38.19
-42.54
-44.13
-41.97
-35.85
-26.40
-14.97
-3.18
7.61
16.59
23.50
28.47
31.70
33.31
33.45
32.33
30.40
28.22
26.36
25.15
24.60
24.45
24.34
23.97
23.21
22.15
20.92
19.65
18.34
16.88
15.05
12.69
9.65
5.99
1.92
-2.25
-6.19
-9.72
-12.82
-15.64
-18.50
-21.71
-25.53
-30.01
-34.88
-39.50
-42.91
-44.01
-41.97
-36.48
-27.95
-17.43
-6.28
4.27
13.39
20.75
26.34
30.26
32.63
33.56
33.33
32.39
31.34
30.68
30.65
31.17
31.89
32.40
32.43
31.88
30.81
29.31
27.47
25.39
23.18
20.94
18.71
16.34
13.56
10.09
5.86
1.07
-3.84
-8.45
-12.53
-16.08
-19.36
-22.60
-25.94
-29.35
-32.72
-35.85
-38.42
-39.88
-39.51
-36.60
-30.73
-22.10
-11.53
-0.26
10.42
19.54
26.62
31.60
34.59
35.72
35.08
32.75
29.00
24.29
19.21
14.26
9.81
5.88
2.30
-1.19
-4.80
-8.57
-12.40
-16.04
-19.20
-21.64
-23.18
-23.77
-23.51
-22.60
-21.26
-19.65
-17.82
-15.79
-13.62
-11.53
-9.88
-9.15
-9.78
-12.00
-15.73
-20.55
-25.75
-30.42
-33.68
-34.73
-33.09
-28.68
-21.82
-13.21
-3.75
5.61
14.00
20.75
25.47
28.04
28.62
27.68
25.87
23.87
22.21
21.05
20.22
19.24
17.67
15.23
11.97
8.13
4.07
0.02
-3.96
-7.93
-12.02
-16.32
-20.80
-25.30
-29.50
-33.01
-35.44
-36.52
-36.27
-34.97
-33.13
-31.39
-30.31
-30.31
-31.55
-33.90
-36.88
-39.73
-41.53
-41.45
-39.01
-34.26
-27.75
-20.44
-13.25
-6.92
-1.84
1.91
4.39
5.76
6.15
5.76
4.85
3.73
2.72
2.21
2.63
4.49
8.23
14.03
21.66
30.47
39.56
48.05
55.34
61.23
65.75
69.04
71.08
71.79
71.01
68.73
65.10
60.46
55.21
49.67
44.02
38.27
32.46
26.70
21.36
17.08
14.56
14.32
16.46
20.59
25.91
31.43
36.23
39.68
41.46
41.50
39.87
36.71
32.15
26.32
19.43
11.79
3.86
-3.88
-11.07
-17.53
-23.33
-28.65
-33.65
-38.37
-42.68
-46.45
-49.61
-52.20
-54.41
-56.37
-58.24
-60.16
-62.34
-65.01
-68.42
-72.65
-77.55
-82.58
-86.96
-89.77
-90.18
-87.62
-81.95
-73.49
-62.97
-51.40
-39.85
-29.23
-20.11
-12.72
-7.00
-2.70
0.44
2.65
4.14
5.11
5.76
6.27
6.80
7.46
8.27
9.18
10.09
10.83
11.23
11.11
10.35
8.93
7.01
4.80
2.56
0.46
-1.49
-3.48
-5.83
-8.92
-12.99
-17.91
-23.11
-27.56
-30.00
-29.38
-25.21
-17.84
-8.38
1.67
10.88
18.31
23.63
27.04
28.93
29.62
29.26
27.92
25.79
23.19
20.63
18.54
17.13
16.31
15.75
15.07
13.99
12.35
10.18
7.52
4.54
1.40
-1.73
-4.69
-7.44
-10.10
-12.89
-16.12
-19.99
-24.64
-29.92
-35.43
-40.39
-43.72
-44.32
-41.40
-34.82
-25.24
-13.96
-2.51
7.79
16.19
22.46
26.81
29.56
31.06
31.55
31.29
30.52
29.51
28.49
27.62
27.00
26.61
26.33
25.98
25.30
24.05
22.06
19.23
15.65
11.53
7.19
2.91
-1.07
-4.66
-7.92
-11.05
-14.32
-18.12
-22.76
-28.41
-34.80
-41.17
-46.22
-48.47
-46.74
-40.58
-30.55
-18.05
-4.86
7.38
17.56
25.19
30.25
33.00
33.79
33.02
31.21
28.87
26.48
24.31
22.41
20.67
18.87
16.93
14.88
12.87
11.02
9.36
7.73
5.81
3.29
-0.08
-4.34
-9.34
-14.75
-20.19
-25.32
-29.97
-34.20
-38.26
-42.52
-47.31
-52.66
-58.11
-62.62
-64.81
-63.32
-57.32
-46.82
-32.67
-16.31
0.68
16.92
31.43
43.54
52.87
59.24
62.69
63.58
62.54
60.35
57.80
55.45
53.60
52.24
51.19
50.10
48.66
46.71
44.22
41.39
38.41
35.41
32.29
28.75
24.44
19.18
13.07
6.52
0.07
-5.85
-11.04
-15.62
-19.98
-24.55
-29.67
-35.38
-41.30
-46.68
-50.48
-51.67
-49.51
-43.85
-35.13
-24.41
-13.02
-2.18
7.19
14.72
20.46
24.72
27.82
29.97
31.22
31.61
31.31
30.59
29.82
29.24
28.87
28.53
27.94
26.89
25.31
23.29
20.98
18.52
16.01
13.48
10.91
8.21
5.24
1.85
-1.99
-6.16
-10.37
-14.23
-17.50
-20.13
-22.30
-24.37
-26.73
-29.70
-33.35
-37.51
-41.60
-44.77
-45.99
-44.36
-39.48
-31.57
-21.56
-10.72
-0.30
8.80
16.18
21.77
25.63
27.78
28.25
27.25
25.23
22.84
20.78
19.47
18.99
19.14
19.66
20.41
21.37
22.52
23.65
24.42
24.40
23.34
21.31
18.66
15.85
13.24
10.95
8.82
6.59
4.06
1.18
-1.93
-5.06
-8.02
-10.75
-13.34
-16.03
-19.12
-22.93
-27.65
-33.19
-39.14
-44.65
-48.61
-49.94
-47.88
-42.32
-33.85
-23.58
-12.82
-2.75
5.83
12.55
17.36
20.46
22.10
22.58
22.16
21.13
19.77
18.43
17.41
16.95
17.11
17.70
18.37
18.74
18.57
17.85
16.78
15.59
14.42
13.22
11.86
10.20
8.19
5.92
3.47
0.92
-1.73
-4.50
-7.41
-10.39
-13.32
-16.07
-18.60
-21.01
-23.53
-26.47
-30.03
-34.12
-38.26
-41.59
-43.07
-41.82
-37.41
-30.09
-20.71
-10.47
-0.58
8.06
14.94
19.93
23.15
24.84
25.28
24.80
23.70
22.31
20.89
19.67
18.81
18.43
18.56
19.09
19.81
20.41
20.55
20.03
18.82
17.09
15.08
13.03
11.01
8.92
6.58
3.81
0.51
-3.21
-7.16
-11.04
-14.63
-17.77
-20.46
-22.80
-24.96
-27.21
-29.84
-33.13
-37.18
-41.75
-46.18
-49.47
-50.56
-48.64
-43.54
-35.83
-26.63
-17.29
-8.98
-2.39
2.20
4.89
5.86
5.33
3.55
0.82
-2.39
-5.57
-8.18
-9.88
-10.57
-10.41
-9.69
-8.69
-7.61
-6.45
-5.09
-3.35
-1.03
1.93
5.39
9.05
12.50
15.30
17.13
17.84
17.52
16.36
14.61
12.53
10.25
7.80
5.06
1.82
-2.14
-6.91
-12.32
-17.81
-22.45
-25.19
-25.11
-21.72
-15.25
-6.51
3.26
12.79
21.03
27.34
31.48
33.51
33.65
32.27
29.79
26.76
23.75
21.26
19.60
18.79
18.61
18.67
18.63
18.27
17.57
16.64
15.61
14.52
13.24
11.52
9.14
5.99
2.22
-1.87
-5.91
-9.57
-12.67
-15.21
-17.40
-19.53
-21.96
-25.02
-28.86
-33.30
-37.84
-41.60
-43.62
-43.10
-39.63
-33.36
-24.90
-15.22
-5.35
3.78
11.47
17.31
21.17
23.16
23.61
22.93
21.58
19.97
18.43
17.19
16.36
15.98
15.95
16.09
16.19
16.09
15.71
15.06
14.17
13.04
11.60
9.73
7.31
4.28
0.72
-3.17
-7.11
-10.83
-14.12
-16.98
-19.64
-22.49
-25.96
-30.21
-34.99
-39.51
-42.65
-43.28
-40.64
-34.60
-25.77
-15.23
-4.27
5.93
14.55
21.14
25.55
27.89
28.44
27.60
25.85
23.70
21.67
20.13
19.29
19.16
19.47
19.88
20.03
19.76
19.09
18.18
17.17
16.07
14.67
12.73
10.08
6.76
3.04
-0.73
-4.29
-7.52
-10.50
-13.46
-16.69
-20.48
-24.98
-30.05
-35.05
-38.96
-40.53
-38.75
-33.31
-24.74
-14.37
-3.75
5.74
13.32
18.78
22.34
24.25
24.73
23.87
21.84
18.99
15.87
13.13
11.25
10.42
10.46
10.98
11.59
12.05
12.28
12.29
11.99
11.17
9.56
7.02
3.62
-0.30
-4.30
-8.02
-11.34
-14.34
-17.26
-20.36
-23.79
-27.60
-31.65
-35.55
-38.58
-39.85
-38.46
-33.94
-26.43
-16.73
-6.15
3.95
12.46
18.79
22.85
24.90
25.42
24.87
23.70
22.19
20.56
18.94
17.42
16.08
14.96
14.09
13.37
12.62
11.63
10.25
8.46
6.38
4.22
2.17
0.35
-1.24
-2.73
-4.31
-6.21
-8.66
-11.89
-16.04
-21.11
-26.81
-32.48
-37.09
-39.47
-38.60
-33.96
-25.78
-15.02
-3.19
8.10
17.49
24.17
28.06
29.60
29.60
28.89
28.21
28.11
29.04
31.27
34.82
39.33
44.06
48.04
50.50
51.16
50.33
48.77
47.18
45.91
44.71
43.03
40.35
36.59
32.10
27.52
23.34
19.71
16.41
13.03
9.28
5.21
1.24
-1.99
-3.84
-3.90
-2.09
1.38
6.14
11.71
17.55
23.12
27.88
31.34
33.14
33.09
31.18
27.59
22.68
17.02
11.26
6.03
1.77
-1.43
-3.83
-5.95
-8.33
-11.27
-14.77
-18.59
-22.43
-26.08
-29.47
-32.67
-35.73
-38.66
-41.42
-44.01
-46.50
-49.11
-52.09
-55.60
-59.46
-63.11
-65.64
-66.01
-63.46
-57.75
-49.34
-39.19
-28.51
-18.37
-9.39
-1.82
4.42
9.48
13.41
16.13
17.59
17.83
17.09
15.81
14.40
13.19
12.25
11.45
10.60
9.62
8.58
7.69
7.15
6.93
6.79
6.31
5.10
3.01
0.17
-3.07
-6.31
-9.29
-12.00
-14.61
-17.39
-20.53
-24.10
-28.02
-32.05
-35.79
-38.70
-40.13
-39.47
-36.32
-30.71
-23.11
-14.39
-5.51
2.64
9.50
14.84
18.61
20.88
21.69
21.14
19.50
17.25
15.05
13.59
13.25
13.99
15.31
16.48
16.86
16.20
14.66
12.68
10.69
8.91
7.25
5.45
3.34
0.91
-1.65
-4.09
-6.22
-7.99
-9.46
-10.67
-11.62
-12.27
-12.68
-13.13
-14.07
-15.92
-18.76
-22.14
-25.07
-26.32
-24.90
-20.49
-13.55
-5.17
3.40
11.10
17.32
21.85
24.73
26.08
25.98
24.58
22.13
19.05
15.85
13.00
10.78
9.18
7.99
6.88
5.60
4.10
2.51
1.06
-0.07
-0.91
-1.68
-2.71
-4.31
-6.62
-9.50
-12.67
-15.79
-18.60
-21.01
-23.14
-25.22
-27.48
-30.11
-33.20
-36.57
-39.82
-42.25
-42.99
-41.27
-36.69
-29.52
-20.73
-11.76
-4.01
1.67
5.15
7.00
7.94
8.38
8.24
7.10
4.65
1.11
-2.74
-5.88
-7.57
-7.68
-6.77
-5.75
-5.37
-5.97
-7.32
-8.93
-10.36
-11.50
-12.58
-14.06
-16.37
-19.69
-23.86
-28.51
-33.14
-37.41
-41.19
-44.61
-47.95
-51.51
-55.53
-60.12
-65.23
-70.61
-75.74
-79.76
-81.51
-79.70
-73.18
-61.29
-44.13
-22.64
1.56
26.45
50.06
70.72
87.30
99.23
106.46
109.41
108.94
106.16
102.27
98.30
94.89
92.22
90.02
87.79
84.97
81.08
75.81
69.07
60.93
51.68
41.74
31.62
21.86
12.92
5.15
-1.23
-6.21
-10.02
-13.19
-16.51
-20.63
-25.80
-31.59
-36.94
-40.54
-41.42
-39.29
-34.69
-28.58
-21.90
-15.19
-8.58
-2.00
4.54
10.72
16.06
20.19
23.04
24.95
26.43
27.96
29.72
31.62
33.39
34.77
35.70
36.28
36.79
37.41
38.14
38.66
38.34
36.44
32.28
25.48
16.12
4.73
-7.89
-20.84
-33.42
-45.11
-55.50
-64.07
-70.07
-72.62
-70.99
-65.05
-55.33
-43.10
-29.93
-17.26
-6.04
3.40
11.13
17.41
22.35
25.91
28.05
28.79
28.37
27.11
25.29
23.03
20.27
16.84
12.68
7.82
2.37
-3.49
-9.73
-16.38
-23.48
-30.96
-38.54
-45.77
-52.11
-57.02
-60.13
-61.34
-60.85
-59.18
-56.94
-54.65
-52.55
-50.44
-47.72
-43.64
-37.61
-29.48
-19.69
-9.15
0.99
9.77
16.68
21.76
25.43
28.26
30.69
32.92
34.83
36.30
37.29
38.05
39.06
40.82
43.57
47.14
50.99
54.39
56.74
57.80
57.67
56.66
55.09
53.18
51.01
48.65
46.18
43.64
40.90
37.56
33.13
27.31
20.34
13.07
6.81
2.81
1.85
3.95
8.43
14.22
20.21
25.48
29.39
31.58
31.90
30.45
27.57
23.77
19.66
15.74
12.30
9.43
7.14
5.36
4.04
3.14
2.56
2.21
2.09
2.24
2.66
3.29
3.79
3.72
2.67
0.40
-2.98
-7.23
-12.10
-17.58
-23.87
-31.19
-39.49
-48.27
-56.59
-63.36
-67.69
-69.20
-68.17
-65.36
-61.81
-58.51
-56.19
-55.14
-55.32
-56.37
-57.84
-59.21
-60.02
-59.84
-58.32
-55.24
-50.59
-44.61
-37.81
-30.87
-24.45
-18.95
-14.44
-10.58
-6.86
-2.76
2.04
7.66
14.07
21.25
29.18
37.78
46.82
55.82
64.10
71.00
76.12
79.47
81.51
83.03
84.81
87.37
90.70
94.25
97.13
98.36
97.17
93.21
86.49
77.29
66.01
53.16
39.36
25.36
11.93
-0.43
-11.64
-21.95
-31.75
-41.22
-50.11
-57.91
-64.11
-68.51
-71.42
-73.43
-75.12
-76.80
-78.44
-79.78
-80.61
-80.90
-80.90
-80.93
-81.30
-82.10
-83.15
-84.02
-84.14
-82.97
-80.01
-74.98
-67.78
-58.63
-48.03
-36.75
-25.67
-15.53
-6.79
0.46
6.36
11.14
14.91
17.75
19.79
21.34
22.88
24.97
28.01
32.04
36.70
41.41
45.54
48.62
50.43
50.98
50.39
48.80
46.31
42.98
38.91
34.25
29.19
23.85
18.08
11.56
3.91
-4.99
-14.64
-23.96
-31.41
-35.54
-35.47
-31.18
-23.46
-13.57
-2.82
7.72
17.42
26.00
33.35
39.42
44.14
47.39
49.08
49.22
48.00
45.79
43.06
40.23
37.46
34.61
31.34
27.22
22.08
16.05
9.53
3.02
-3.16
-8.98
-14.61
-20.29
-26.12
-31.99
-37.71
-43.13
-48.11
-52.53
-56.06
-58.15
-58.06
-55.27
-49.71
-41.92
-32.92
-23.89
-15.70
-8.78
-3.06
1.75
5.90
9.41
12.07
13.64
13.97
13.16
11.56
9.66
7.97
6.88
6.59
7.01
7.81
8.54
8.73
8.12
6.78
5.03
3.29
1.87
0.71
-0.55
-2.46
-5.47
-9.80
-15.25
-21.32
-27.21
-31.95
-34.60
-34.45
-31.30
-25.54
-18.11
-10.22
-2.99
2.87
7.16
10.07
11.93
13.07
13.65
13.80
13.63
13.28
12.93
12.73
12.75
13.01
13.46
14.01
14.55
14.96
15.13
15.01
14.62
14.07
13.51
13.02
12.57
11.93
10.74
8.69
5.65
1.82
-2.19
-5.48
-7.03
-6.01
-1.98
4.98
14.27
24.95
35.93
46.18
54.86
61.44
65.63
67.44
67.06
64.81
61.15
56.56
51.48
46.25
41.09
36.11
31.38
26.97
22.92
19.24
15.88
12.70
9.53
6.25
2.82
-0.72
-4.26
-7.66
-10.86
-13.82
-16.63
-19.42
-22.34
-25.57
-29.14
-32.92
-36.51
-39.37
-40.83
-40.30
-37.43
-32.20
-25.03
-16.69
-8.12
-0.22
6.37
11.37
14.74
16.59
17.02
16.13
14.12
11.34
8.35
5.70
3.77
2.60
1.94
1.46
0.88
0.17
-0.62
-1.44
-2.41
-3.73
-5.68
-8.41
-11.87
-15.82
-19.82
-23.44
-26.33
-28.34
-29.57
-30.26
-30.76
-31.47
-32.71
-34.70
-37.44
-40.60
-43.44
-44.97
-44.20
-40.49
-33.92
-25.26
-15.73
-6.62
1.16
7.23
11.63
14.58
16.27
16.85
16.46
15.38
14.00
12.73
11.89
11.55
11.60
11.77
11.82
11.60
11.14
10.59
10.13
9.86
9.72
9.47
8.82
7.54
5.62
3.30
0.95
-1.09
-2.64
-3.73
-4.58
-5.47
-6.64
-8.29
-10.48
-13.14
-16.09
-19.05
-21.68
-23.64
-24.60
-24.31
-22.53
-19.16
-14.32
-8.39
-2.04
3.99
9.08
12.88
15.40
16.82
17.40
17.30
16.63
15.50
14.11
12.65
11.35
10.29
9.44
8.68
7.85
6.86
5.70
4.39
2.98
1.50
-0.07
-1.80
-3.74
-5.88
-8.19
-10.58
-12.98
-15.34
-17.61
-19.72
-21.53
-22.91
-23.78
-24.26
-24.62
-25.22
-26.41
-28.38
-31.03
-33.98
-36.59
-38.12
-37.84
-35.27
-30.38
-23.57
-15.66
-7.59
-0.16
6.14
11.15
14.91
17.55
19.18
19.91
19.92
19.51
18.97
18.53
18.23
17.95
17.52
16.82
15.87
14.81
13.85
13.09
12.56
12.13
11.59
10.76
9.55
7.94
6.02
3.97
1.98
0.19
-1.27
-2.43
-3.41
-4.41
-5.60
-7.01
-8.56
-10.06
-11.34
-12.35
-13.16
-13.99
-15.05
-16.47
-18.19
-20.01
-21.62
-22.65
-22.76
-21.68
-19.31
-15.76
-11.38
-6.64
-2.04
2.07
5.54
8.33
10.46
11.95
12.85
13.29
13.44
13.51
13.61
13.73
13.66
13.24
12.40
11.33
10.34
9.66
9.37
9.29
9.10
8.56
7.56
6.14
4.44
2.61
0.86
-0.60
-1.63
-2.18
-2.49
-2.91
-3.79
-5.25
-7.13
-9.01
-10.51
-11.55
-12.36
-13.37
-14.91
-16.99
-19.35
-21.57
-23.38
-24.64
-25.32
-25.31
-24.42
-22.40
-19.16
-14.87
-10.00
-5.08
-0.61
3.12
6.08
8.36
10.09
11.36
12.21
12.65
12.72
12.54
12.31
12.22
12.39
12.86
13.52
14.17
14.63
14.81
14.74
14.51
14.21
13.83
13.27
12.45
11.37
10.14
8.89
7.71
6.55
5.29
3.81
2.11
0.26
-1.57
-3.27
-4.83
-6.33
-7.83
-9.41
-11.06
-12.78
-14.60
-16.53
-18.45
-20.16
-21.28
-21.43
-20.30
-17.86
-14.33
-10.11
-5.69
-1.45
2.34
5.54
8.12
10.08
11.40
12.13
12.33
12.17
11.86
11.59
11.47
11.54
11.73
11.92
11.97
11.74
11.10
10.02
8.63
7.19
5.97
5.16
4.68
4.26
3.59
2.47
0.99
-0.55
-1.83
-2.74
-3.42
-4.21
-5.38
-6.99
-8.87
-10.77
-12.57
-14.32
-16.21
-18.34
-20.59
-22.67
-24.17
-24.77
-24.31
-22.84
-20.45
-17.23
-13.24
-8.59
-3.45
1.91
7.12
11.72
15.29
17.42
17.93
16.93
14.89
12.54
10.59
9.55
9.44
9.96
10.63
11.05
11.04
10.66
10.04
9.27
8.37
7.31
6.13
4.92
3.77
2.71
1.63
0.34
-1.26
-3.12
-5.05
-6.77
-8.10
-9.06
-9.81
-10.67
-11.88
-13.54
-15.56
-17.65
-19.35
-20.19
-19.75
-17.84
-14.56
-10.27
-5.50
-0.78
3.51
7.20
10.32
12.96
15.15
16.83
17.88
18.24
17.95
17.20
16.22
15.23
14.35
13.62
13.03
12.61
12.39
12.35
12.42
12.47
12.31
11.79
10.86
9.55
7.95
6.19
4.38
2.61
0.87
-0.86
-2.64
-4.53
-6.47
-8.45
-10.38
-12.27
-14.10
-15.74
-16.89
-17.05
-15.75
-12.78
-8.36
-3.19
1.85
6.01
8.95
10.79
11.87
12.43
12.47
11.81
10.28
7.96
5.17
2.30
-0.49
-3.29
-6.33
-9.74
-13.34
-16.76
-19.65
-21.96
-24.01
-26.35
-29.37
-33.11
-37.23
-41.28
-44.92
-48.17
-51.23
-54.37
-57.73
-61.30
-65.04
-68.85
-72.58
-75.83
-77.85
-77.59
-74.03
-66.59
-55.52
-41.92
-27.37
-13.48
-1.41
8.32
15.72
21.05
24.61
26.65
27.47
27.44
27.01
26.64
26.62
27.04
27.79
28.58
29.19
29.46
29.37
28.96
28.33
27.44
26.13
24.10
21.11
17.05
12.12
6.73
1.35
-3.66
-8.27
-12.75
-17.55
-23.14
-29.71
-36.98
-44.12
-49.82
-52.60
-51.29
-45.37
-35.20
-21.94
-7.23
7.30
20.34
31.05
39.05
44.23
46.73
46.88
45.18
42.33
39.07
35.99
33.43
31.45
29.80
28.18
26.39
24.39
22.29
20.24
18.27
16.25
13.94
11.06
7.51
3.38
-1.06
-5.45
-9.51
-13.15
-16.49
-19.91
-23.92
-28.96
-35.19
-42.20
-48.96
-53.94
-55.49
-52.38
-44.18
-31.46
-15.65
1.41
17.90
32.46
44.21
52.79
58.10
60.33
59.87
57.38
53.67
49.64
45.98
43.06
40.91
39.22
37.63
35.82
33.71
31.48
29.38
27.64
26.25
24.89
23.03
20.08
15.67
9.87
3.12
-3.86
-10.45
-16.26
-21.33
-25.98
-30.73
-36.09
-42.31
-49.15
-55.81
-60.84
-62.54
-59.44
-50.79
-37.02
-19.56
-0.57
17.72
33.51
45.72
54.03
58.65
60.12
59.18
56.62
53.26
49.83
46.87
44.66
43.13
41.95
40.64
38.81
36.32
33.29
30.02
26.77
23.60
20.31
16.54
11.98
6.53
0.43
-5.89
-11.99
-17.57
-22.66
-27.49
-32.49
-38.04
-44.36
-51.36
-58.48
-64.63
-68.32
-68.01
-62.60
-51.92
-36.91
-19.39
-1.57
14.59
27.81
37.61
44.06
47.52
48.41
47.13
44.10
39.87
35.00
30.04
25.33
20.91
16.60
12.09
7.21
2.06
-3.00
-7.47
-11.05
-13.71
-15.88
-18.18
-21.13
-24.94
-29.38
-33.94
-38.07
-41.49
-44.22
-46.65
-49.33
-52.84
-57.53
-63.35
-69.69
-75.36
-78.87
-78.78
-74.22
-65.14
-52.39
-37.38
-21.64
-6.39
7.73
20.48
31.89
41.97
50.65
57.86
63.70
68.51
72.78
76.98
81.33
85.63
89.42
92.18
93.70
94.12
93.91
93.51
93.05
92.20
90.33
86.77
81.16
73.57
64.50
54.71
45.01
36.07
28.33
21.83
16.21
10.81
4.78
-2.56
-11.41
-21.24
-30.81
-38.37
-42.11
-40.77
-34.10
-22.97
-9.23
4.84
17.17
26.35
31.83
33.76
32.64
29.05
23.53
16.61
8.94
1.26
-5.67
-11.31
-15.43
-18.16
-19.84
-20.85
-21.43
-21.63
-21.41
-20.72
-19.69
-18.65
-18.05
-18.30
-19.70
-22.25
-25.69
-29.54
-33.28
-36.54
-39.23
-41.63
-44.31
-47.95
-53.01
-59.43
-66.48
-72.76
-76.53
-76.16
-70.72
-60.20
-45.66
-28.82
-11.62
4.36
18.17
29.54
38.59
45.52
50.45
53.36
54.36
53.76
52.14
50.23
48.59
47.48
46.75
46.07
45.03
43.41
41.18
38.43
35.31
31.83
27.84
23.16
17.58
11.01
3.55
-4.48
-12.62
-20.38
-27.51
-34.12
-40.69
-47.90
-56.29
-65.95
-76.26
-86.11
-94.20
-99.58
-102.03
-102.12
-100.98
-99.76
-99.19
-99.34
-99.69
-99.52
-98.21
-95.62
-92.03
-87.99
-84.02
-80.38
-76.97
-73.28
-68.44
-61.28
-50.66
-35.93
-17.39
3.42
24.01
41.71
54.66
62.63
67.05
70.45
75.18
82.39
91.42
100.29
106.63
108.87
106.84
101.70
95.17
88.64
82.72
77.28
71.93
66.58
61.57
57.39
54.21
51.56
48.50
44.16
38.26
31.32
24.36
18.37
13.82
10.51
7.80
5.09
2.15
-0.69
-2.76
-3.32
-1.91
1.52
6.68
13.01
19.84
26.48
32.29
36.75
39.57
40.78
40.69
39.75
38.33
36.52
34.12
30.78
26.20
20.31
13.32
5.62
-2.31
-10.00
-16.93
-22.50
-25.94
-26.56
-23.95
-18.20
-9.99
-0.47
9.00
17.29
23.62
27.69
29.58
29.58
28.05
25.36
21.86
17.90
13.86
10.12
7.02
4.81
3.57
3.14
3.17
3.23
2.98
2.32
1.39
0.49
-0.05
-0.12
0.20
0.63
0.89
0.72
0.00
-1.34
-3.32
-5.98
-9.27
-13.02
-16.79
-19.94
-21.71
-21.41
-18.72
-13.69
-6.84
1.02
8.96
16.17
22.01
26.09
28.32
28.85
28.00
26.16
23.72
20.97
18.12
15.32
12.76
10.55
8.70
6.99
5.11
2.72
-0.29
-3.78
-7.43
-10.90
-14.02
-16.83
-19.47
-22.08
-24.70
-27.35
-30.09
-33.10
-36.58
-40.56
-44.77
-48.62
-51.37
-52.35
-51.21
-47.98
-42.98
-36.73
-29.79
-22.64
-15.73
-9.44
-4.06
0.24
3.42
5.59
6.95
7.68
7.92
7.70
7.02
5.95
4.64
3.33
2.26
1.48
0.90
0.23
-0.82
-2.46
-4.77
-7.56
-10.61
-13.71
-16.81
-20.03
-23.58
-27.66
-32.33
-37.47
-42.77
-47.73
-51.66
-53.75
-53.25
-49.57
-42.63
-32.90
-21.46
-9.67
1.15
10.00
16.41
20.31
21.88
21.46
19.43
16.24
12.45
8.64
5.33
2.91
1.48
0.91
0.82
0.80
0.45
-0.46
-2.00
-4.10
-6.57
-9.20
-11.75
-14.02
-15.84
-17.14
-18.05
-18.88
-20.15
-22.41
-26.01
-30.86
-36.31
-41.16
-43.90
-43.17
-38.17
-28.91
-16.32
-1.97
12.33
25.00
34.97
41.85
45.78
47.31
47.12
45.85
43.99
41.82
39.50
37.14
34.82
32.63
30.61
28.74
26.89
24.98
22.93
20.76
18.53
16.28
13.99
11.53
8.76
5.54
1.84
-2.28
-6.73
-11.42
-16.33
-21.40
-26.51
-31.27
-35.06
-37.04
-36.46
-32.87
-26.36
-17.55
-7.47
2.80
12.38
20.70
27.52
32.78
36.53
38.84
39.87
39.93
39.49
39.11
39.26
40.11
41.49
42.92
43.88
44.02
43.33
42.03
40.43
38.68
36.66
34.08
30.61
26.13
20.72
14.68
8.28
1.67
-5.19
-12.44
-20.18
-28.37
-36.72
-44.81
-52.14
-58.23
-62.64
-64.96
-64.75
-61.65
-55.55
-46.84
-36.47
-25.80
-16.30
-9.11
-4.70
-2.87
-2.91
-3.94
-5.20
-6.22
-6.72
-6.59
-5.74
-4.12
-1.82
0.95
3.81
6.35
8.26
9.48
10.14
10.47
10.60
10.44
9.68
7.98
5.17
1.27
-3.43
-8.62
-14.10
-19.78
-25.59
-31.24
-36.21
-39.75
-41.15
-40.00
-36.28
-30.43
-23.09
-14.96
-6.67
1.25
8.34
14.15
18.37
20.89
21.84
21.58
20.54
19.11
17.57
16.09
14.75
13.62
12.78
12.23
11.91
11.62
11.13
10.16
8.49
6.02
2.79
-0.96
-4.93
-8.78
-12.28
-15.41
-18.33
-21.38
-24.93
-29.26
-34.35
-39.83
-44.95
-48.69
-50.06
-48.36
-43.41
-35.68
-26.07
-15.68
-5.56
3.59
11.40
17.79
22.80
26.46
28.78
29.77
29.54
28.38
26.69
24.92
23.37
22.14
21.15
20.26
19.37
18.49
17.70
17.01
16.22
14.99
12.92
9.81
5.76
1.23
-3.19
-6.94
-9.81
-12.01
-14.10
-16.73
-20.40
-25.15
-30.47
-35.33
-38.54
-39.01
-36.23
-30.34
-22.11
-12.66
-3.10
5.71
13.23
19.21
23.59
26.39
27.73
27.80
26.92
25.47
23.82
22.25
20.89
19.74
18.73
17.79
16.87
15.97
15.08
14.15
13.03
11.55
9.55
7.01
4.05
0.94
-2.08
-4.87
-7.45
-9.99
-12.78
-16.12
-20.21
-25.03
-30.21
-35.02
-38.48
-39.70
-38.09
-33.68
-27.06
-19.16
-10.96
-3.18
3.72
9.50
14.04
17.23
19.01
19.48
18.90
17.66
16.19
14.78
13.63
12.75
12.09
11.57
11.11
10.66
10.18
9.64
8.97
8.05
6.80
5.14
3.06
0.63
-2.08
-5.00
-8.10
-11.37
-14.83
-18.48
-22.36
-26.45
-30.64
-34.62
-37.75
-39.29
-38.49
-34.95
-28.80
-20.73
-11.79
-3.08
4.59
10.79
15.49
18.90
21.27
22.82
23.67
23.92
23.63
22.92
21.89
20.62
19.18
17.58
15.90
14.23
12.66
11.28
10.10
8.97
7.65
5.86
3.39
0.24
-3.41
-7.22
-10.83
-14.08
-17.08
-20.14
-23.68
-28.00
-33.16
-38.97
-44.98
-50.57
-55.02
-57.58
-57.61
-54.73
-48.98
-40.98
-31.75
-22.52
-14.43
-8.24
-4.20
-2.04
-1.18
-0.86
-0.39
0.78
2.84
5.71
8.94
11.93
14.08
14.88
14.10
11.66
7.59
1.82
-5.85
-15.66
-27.66
-41.53
-56.48
-71.39
-85.17
-97.04
-106.76
-114.69
-121.59
-128.36
-135.64
-143.58
-151.61
-158.46
-162.30
-161.12
-153.32
-138.20
-116.38
-89.70
-60.90
-32.83
-7.72
13.25
30.09
43.59
54.74
64.32
72.59
79.54
85.12
89.47
92.99
96.12
99.21
102.41
105.75
109.38
113.60
118.78
125.09
132.21
139.33
145.45
149.77
152.15
153.08
153.34
153.50
153.42
152.22
148.58
141.25
129.55
113.64
94.56
74.06
54.45
38.11
27.06
22.23
23.04
27.41
32.44
35.45
34.98
31.09
24.89
17.55
9.50
0.23
-11.08
-24.63
-39.41
-53.38
-64.27
-70.79
-73.16
-73.06
-72.65
-73.62
-76.52
-80.73
-85.10
-88.65
-91.09
-92.88
-94.82
-97.65
-101.62
-106.53
-111.80
-116.80
-120.95
-123.72
-124.66
-123.33
-119.45
-112.96
-104.15
-93.61
-82.03
-70.01
-57.79
-45.18
-31.69
-16.78
-0.18
17.75
36.12
53.61
68.85
80.78
88.89
93.24
94.36
93.06
90.17
86.58
83.05
80.21
78.46
77.82
77.97
78.28
78.02
76.64
73.85
69.71
64.47
58.45
51.90
44.96
37.77
30.51
23.41
16.67
10.28
3.96
-2.70
-10.12
-18.34
-26.89
-34.71
-40.42
-42.73
-40.84
-34.72
-25.19
-13.63
-1.59
9.65
19.22
26.73
32.07
35.19
36.05
34.63
31.08
25.84
19.66
13.40
7.86
3.53
0.51
-1.48
-2.91
-4.25
-5.82
-7.71
-9.90
-12.39
-15.28
-18.82
-23.23
-28.63
-34.92
-41.84
-49.04
-56.24
-63.13
-69.22
-73.67
-75.26
-72.73
-65.20
-52.60
-35.67
-15.68
6.10
28.78
51.83
74.66
96.18
114.70
128.26
135.39
135.67
129.99
120.15
108.19
95.72
83.62
72.19
61.46
51.59
42.98
36.19
31.66
29.53
29.60
31.29
33.93
36.92
39.97
43.08
46.41
50.06
53.78
56.90
58.35
56.89
51.41
41.24
26.42
7.81
-12.99
-33.85
-52.55
-67.19
-76.60
-80.41
-79.09
-73.66
-65.43
-55.86
-46.36
-38.16
-32.11
-28.49
-26.93
-26.56
-26.28
-25.14
-22.56
-18.50
-13.25
-7.30
-1.12
4.90
10.47
15.40
19.55
22.86
25.32
26.93
27.67
27.53
26.44
24.37
21.34
17.39
12.57
6.93
0.44
-6.84
-14.77
-22.92
-30.57
-36.76
-40.51
-41.17
-38.66
-33.63
-27.21
-20.78
-15.44
-11.81
-10.03
-9.87
-11.03
-13.25
-16.27
-19.73
-23.11
-25.78
-27.24
-27.31
-26.22
-24.51
-22.84
-21.70
-21.31
-21.60
-22.30
-23.09
-23.73
-24.15
-24.43
-24.75
-25.35
-26.43
-28.13
-30.49
-33.56
-37.23
-41.26
-45.05
-47.71
-48.19
-45.54
-39.31
-29.78
-17.91
-5.11
7.20
17.93
26.47
32.66
36.61
38.54
38.71
37.42
35.02
31.98
28.76
25.83
23.53
22.03
21.33
21.20
21.29
21.18
20.48
18.99
16.64
13.55
9.96
6.08
2.10
-1.79
-5.54
-9.23
-13.10
-17.46
-22.43
-27.63
-32.09
-34.44
-33.36
-28.17
-19.15
-7.39
5.59
18.43
30.22
40.50
49.11
55.99
61.13
64.68
67.08
68.98
70.96
73.31
75.88
78.19
79.70
80.06
79.18
77.17
74.18
70.23
65.28
59.23
52.00
43.62
34.18
23.88
12.97
1.74
-9.52
-20.59
-31.36
-41.84
-52.03
-61.81
-70.85
-78.61
-84.43
-87.73
-88.15
-85.69
-80.77
-74.08
-66.46
-58.69
-51.40
-44.99
-39.66
-35.47
-32.38
-30.20
-28.59
-27.07
-25.10
-22.29
-18.54
-14.15
-9.68
-5.70
-2.60
-0.40
1.13
2.32
3.42
4.48
5.39
5.92
5.84
4.92
2.95
-0.13
-4.08
-8.26
-11.57
-12.77
-10.84
-5.43
2.94
13.04
23.30
32.34
39.29
43.90
46.36
47.02
46.16
43.97
40.59
36.28
31.51
26.86
22.90
19.93
17.86
16.23
14.45
12.01
8.72
4.72
0.37
-3.99
-8.18
-12.22
-16.23
-20.36
-24.70
-29.35
-34.41
-40.02
-46.19
-52.58
-58.42
-62.47
-63.44
-60.34
-52.94
-41.99
-29.00
-15.78
-3.96
5.46
12.19
16.43
18.59
19.09
18.23
16.34
13.85
11.31
9.25
8.00
7.60
7.71
7.87
7.61
6.72
5.22
3.32
1.29
-0.72
-2.72
-4.84
-7.24
-9.98
-13.00
-16.19
-19.57
-23.24
-27.36
-31.96
-36.62
-40.49
-42.42
-41.32
-36.64
-28.57
-18.02
-6.36
4.98
14.88
22.69
28.20
31.51
32.92
32.76
31.38
29.11
26.30
23.30
20.43
17.95
16.02
14.63
13.63
12.75
11.73
10.30
8.35
5.83
2.82
-0.50
-3.95
-7.35
-10.59
-13.61
-16.48
-19.30
-22.30
-25.71
-29.72
-34.26
-38.98
-43.11
-45.60
-45.45
-41.97
-35.16
-25.70
-14.83
-3.97
5.63
13.16
18.27
21.00
21.59
20.44
18.07
15.04
12.00
9.50
7.88
7.24
7.37
7.91
8.48
8.78
8.64
7.97
6.77
5.11
3.03
0.61
-2.05
-4.85
-7.69
-10.51
-13.26
-16.02
-18.98
-22.40
-26.53
-31.39
-36.60
-41.26
-44.13
-43.91
-39.79
-31.73
-20.64
-8.09
4.14
14.59
22.46
27.67
30.57
31.72
31.59
30.50
28.64
26.24
23.61
21.15
19.24
18.04
17.49
17.26
16.92
16.15
14.80
12.89
10.55
7.87
4.91
1.70
-1.67
-5.09
-8.43
-11.73
-15.21
-19.22
-24.05
-29.62
-35.39
-40.32
-43.18
-42.81
-38.54
-30.37
-19.04
-5.89
7.46
19.52
29.20
35.97
39.83
41.13
40.46
38.39
35.51
32.35
29.34
26.78
24.75
23.19
21.88
20.61
19.20
17.53
15.49
13.02
10.04
6.58
2.76
-1.23
-5.20
-9.06
-12.85
-16.64
-20.54
-24.63
-28.95
-33.59
-38.56
-43.66
-48.26
-51.35
-51.69
-48.25
-40.71
-29.64
-16.42
-2.81
9.58
19.64
26.94
31.62
34.07
34.82
34.29
32.86
30.82
28.45
26.03
23.84
22.10
20.94
20.33
20.05
19.78
19.16
17.92
15.95
13.25
9.92
6.14
2.13
-1.86
-5.62
-9.04
-12.21
-15.36
-18.83
-22.94
-27.86
-33.49
-39.34
-44.50
-47.75
-47.90
-44.12
-36.35
-25.31
-12.36
0.93
13.15
23.32
30.89
35.73
37.95
37.89
36.09
33.24
30.05
27.15
24.88
23.30
22.23
21.32
20.25
18.81
16.96
14.84
12.65
10.50
8.31
5.80
2.61
-1.48
-6.37
-11.73
-17.12
-22.17
-26.75
-31.02
-35.23
-39.64
-44.37
-49.41
-54.55
-59.39
-63.31
-65.48
-65.02
-61.30
-54.22
-44.45
-33.27
-22.27
-12.89
-6.02
-1.93
-0.40
-0.93
-2.94
-5.87
-9.13
-12.17
-14.47
-15.67
-15.66
-14.59
-12.76
-10.54
-8.31
-6.41
-5.13
-4.71
-5.32
-6.97
-9.57
-12.88
-16.58
-20.38
-24.02
-27.46
-30.83
-34.44
-38.72
-44.12
-50.80
-58.52
-66.37
-72.87
-76.19
-74.78
-67.82
-55.65
-39.68
-21.91
-4.25
12.10
26.82
40.26
52.82
64.55
74.95
83.20
88.59
90.85
90.20
87.17
82.30
75.98
68.46
60.07
51.36
42.98
35.48
28.96
23.00
16.91
10.22
3.01
-4.10
-10.30
-15.13
-18.73
-21.77
-24.98
-28.79
-33.09
-37.44
-41.30
-44.25
-45.89
-45.72
-43.04
-37.14
-27.70
-15.15
-0.74
13.79
26.70
36.70
43.30
46.69
47.56
46.75
44.98
42.74
40.31
37.91
35.82
34.39
33.98
34.74
36.52
38.78
40.79
41.83
41.42
39.52
36.48
32.86
29.24
25.92
22.90
19.94
16.66
12.79
8.19
2.84
-3.18
-9.54
-15.58
-20.17
-21.93
-19.60
-12.67
-1.67
11.81
25.68
38.07
47.85
54.81
59.32
61.86
62.65
61.74
59.13
55.13
50.39
45.77
42.04
39.64
38.61
38.65
39.31
40.15
40.72
40.55
39.07
35.72
30.04
21.92
11.60
-0.27
-12.89
-25.41
-37.18
-47.84
-57.34
-65.85
-73.66
-80.93
-87.47
-92.63
-95.36
-94.51
-89.27
-79.50
-65.95
-50.08
-33.68
-18.41
-5.49
4.43
11.16
14.86
15.87
14.69
11.91
8.23
4.36
0.96
-1.52
-2.81
-2.93
-2.11
-0.77
0.58
1.43
1.36
0.20
-1.95
-4.75
-7.67
-10.24
-12.19
-13.55
-14.74
-16.34
-19.02
-23.15
-28.64
-34.77
-40.26
-43.63
-43.56
-39.38
-31.27
-20.14
-7.40
5.55
17.70
28.59
38.33
47.37
56.16
64.82
72.82
78.97
81.79
80.11
73.78
64.00
53.00
43.20
36.23
32.39
30.67
29.55
27.78
24.98
21.39
17.45
13.10
7.74
0.58
-8.81
-20.01
-31.91
-43.28
-53.24
-61.64
-68.71
-74.65
-79.16
-81.40
-80.26
-74.92
-65.34
-52.50
-38.22
-24.74
-13.97
-6.92
-3.32
-1.73
-0.14
3.24
9.30
17.76
27.43
36.78
44.60
50.29
53.88
55.72
56.24
55.79
54.61
52.87
50.68
48.20
45.61
43.12
40.91
39.02
37.33
35.52
33.23
30.30
27.03
24.28
23.30
25.36
31.26
40.99
53.60
67.55
81.09
92.80
101.79
107.75
110.69
110.72
108.02
102.82
95.56
86.84
77.35
67.70
58.28
49.23
40.57
32.38
24.81
18.15
12.68
8.57
5.70
3.62
1.46
-1.83
-7.26
-15.46
-26.41
-39.37
-53.09
-66.10
-77.08
-85.08
-89.63
-90.71
-88.68
-84.18
-78.02
-71.00
-63.83
-56.89
-50.29
-43.85
-37.38
-30.80
-24.27
-18.20
-13.06
-9.34
-7.30
-6.89
-7.81
-9.55
-11.49
-13.12
-14.08
-14.29
-13.89
-13.24
-12.78
-12.95
-14.11
-16.42
-19.80
-24.01
-28.64
-33.33
-37.80
-42.01
-46.09
-50.21
-54.34
-58.05
-60.41
-60.28
-56.67
-49.22
-38.49
-25.83
-13.04
-1.75
6.98
12.86
16.24
17.74
17.90
17.04
15.27
12.73
9.70
6.61
4.01
2.31
1.70
2.12
3.30
4.92
6.71
8.43
9.90
10.90
11.25
10.74
9.27
6.86
3.70
0.07
-3.73
-7.44
-10.99
-14.51
-18.24
-22.35
-26.74
-30.92
-34.14
-35.59
-34.83
-31.89
-27.38
-22.15
-17.00
-12.51
-8.87
-6.05
-3.90
-2.28
-1.14
-0.44
-0.16
-0.20
-0.44
-0.70
-0.84
-0.73
-0.39
0.06
0.40
0.41
-0.06
-1.04
-2.48
-4.24
-6.21
-8.25
-10.23
-12.01
-13.45
-14.48
-15.19
-15.82
-16.75
-18.27
-20.42
-22.91
-25.13
-26.41
-26.21
-24.37
-21.09
-16.90
-12.34
-7.91
-3.89
-0.49
2.14
3.88
4.70
4.75
4.29
3.64
3.00
2.35
1.48
0.19
-1.62
-3.76
-5.94
-7.87
-9.40
-10.54
-11.43
-12.22
-13.02
-13.97
-15.30
-17.26
-20.00
-23.51
-27.50
-31.55
-35.27
-38.49
-41.35
-44.27
-47.66
-51.80
-56.55
-61.35
-65.38
-67.80
-68.06
-66.12
-62.50
-58.02
-53.52
-49.58
-46.40
-43.98
-42.21
-41.06
-40.46
-40.22
-39.95
-39.15
-37.36
-34.50
-30.76
-26.58
-22.34
-18.21
-14.14
-10.05
-5.95
-2.03
1.38
4.02
5.81
6.83
7.22
7.11
6.53
5.43
3.74
1.44
-1.38
-4.62
-8.15
-11.84
-15.70
-19.87
-24.64
-30.34
-37.10
-44.51
-51.51
-56.52
-57.82
-54.24
-45.51
-32.43
-16.56
0.39
16.98
32.29
45.83
57.30
66.46
73.03
76.98
78.66
78.72
78.04
77.39
77.16
77.33
77.55
77.39
76.63
75.29
73.63
71.94
70.31
68.53
66.16
62.77
58.09
52.22
45.53
38.50
31.46
24.54
17.64
10.58
3.28
-4.15
-11.46
-18.33
-24.59
-30.22
-35.48
-40.81
-46.70
-53.56
-61.52
-70.20
-78.62
-85.26
-88.35
-86.33
-78.47
-65.08
-47.54
-27.93
-8.35
9.51
24.70
36.93
46.32
53.07
57.45
59.69
60.21
59.59
58.49
57.47
56.81
56.45
56.14
55.57
54.61
53.33
51.97
50.73
49.71
48.78
47.60
45.76
42.94
38.99
34.12
28.76
23.44
18.57
14.21
10.10
5.80
0.90
-4.67
-10.63
-16.43
-21.52
-25.62
-28.84
-31.73
-35.01
-39.42
-45.44
-53.15
-62.11
-71.34
-79.48
-84.92
-86.18
-82.31
-73.17
-59.63
-43.30
-26.14
-9.91
4.29
16.06
25.53
32.98
38.64
42.60
44.92
45.82
45.71
45.10
44.44
44.00
43.79
43.70
43.57
43.35
43.08
42.79
42.49
42.09
41.42
40.25
38.41
35.84
32.65
29.10
25.47
21.89
18.26
14.28
9.68
4.44
-1.12
-6.45
-11.03
-14.65
-17.55
-20.32
-23.67
-28.17
-34.06
-41.07
-48.46
-54.93
-58.89
-58.74
-53.41
-42.70
-27.52
-9.67
8.66
25.51
39.59
50.44
58.23
63.48
66.75
68.41
68.74
67.98
66.47
64.64
62.81
61.11
59.39
57.31
54.66
51.50
48.21
45.29
43.08
41.46
39.93
37.87
34.79
30.66
25.83
20.82
16.04
11.67
7.59
3.58
-0.55
-4.81
-9.09
-13.18
-16.91
-20.17
-22.96
-25.36
-27.56
-29.83
-32.47
-35.66
-39.28
-42.90
-45.78
-47.15
-46.45
-43.51
-38.61
-32.33
-25.37
-18.30
-11.54
-5.36
0.01
4.42
7.76
10.01
11.24
11.64
11.43
10.83
10.02
9.15
8.29
7.45
6.61
5.76
4.97
4.38
4.11
4.16
4.37
4.39
3.87
2.64
0.83
-1.19
-2.97
-4.26
-5.14
-5.93
-7.08
-8.85
-11.20
-13.88
-16.54
-18.92
-20.90
-22.49
-23.81
-24.94
-26.04
-27.24
-28.69
-30.42
-32.29
-34.02
-35.19
-35.48
-34.73
-32.99
-30.38
-27.00
-22.87
-18.03
-12.59
-6.90
-1.48
3.11
6.46
8.46
9.34
9.55
9.58
9.77
10.22
10.83
11.41
11.75
11.75
11.42
10.75
9.77
8.44
6.73
4.69
2.48
0.31
-1.66
-3.37
-4.96
-6.61
-8.51
-10.71
-13.16
-15.75
-18.35
-20.85
-23.25
-25.58
-27.87
-30.13
-32.27
-34.05
-35.05
-34.82
-32.91
-29.11
-23.52
-16.57
-8.89
-1.13
6.15
12.57
17.95
22.22
25.37
27.40
28.39
28.45
27.75
26.50
24.89
23.07
21.08
18.96
16.72
14.41
12.12
9.94
7.92
6.02
4.16
2.21
0.11
-2.10
-4.28
-6.27
-7.93
-9.26
-10.42
-11.59
-12.94
-14.50
-16.12
-17.63
-18.93
-20.17
-21.65
-23.69
-26.32
-29.14
-31.36
-32.06
-30.52
-26.52
-20.38
-12.75
-4.42
3.86
11.43
17.72
22.36
25.32
27.05
28.48
30.67
34.31
39.43
45.26
50.57
54.20
55.47
54.39
51.41
47.13
42.01
36.30
30.19
23.92
17.88
12.50
8.07
4.53
1.53
-1.48
-4.92
-8.92
-13.30
-17.63
-21.48
-24.61
-27.10
-29.24
-31.38
-33.72
-36.13
-38.25
-39.57
-39.63
-38.19
-35.28
-31.11
-26.01
-20.32
-14.36
-8.43
-2.84
2.10
6.10
8.97
10.69
11.41
11.41
11.03
10.53
10.03
9.51
8.86
7.99
6.91
5.68
4.42
3.22
2.01
0.69
-0.89
-2.74
-4.79
-6.89
-8.94
-10.86
-12.73
-14.65
-16.74
-19.06
-21.61
-24.28
-26.98
-29.61
-32.02
-33.99
-35.15
-35.09
-33.37
-29.81
-24.47
-17.70
-10.04
-2.10
5.60
12.61
18.58
23.18
26.17
27.48
27.27
25.99
24.22
22.55
21.29
20.46
19.75
18.80
17.37
15.41
13.12
10.76
8.52
6.43
4.36
2.11
-0.44
-3.28
-6.31
-9.34
-12.24
-14.96
-17.61
-20.35
-23.37
-26.76
-30.46
-34.15
-37.35
-39.47
-39.95
-38.38
-34.61
-28.79
-21.32
-12.79
-3.82
4.98
13.09
20.01
25.35
28.86
30.53
30.64
29.69
28.25
26.75
25.41
24.24
23.15
21.99
20.69
19.19
17.47
15.48
13.21
10.69
7.96
5.08
2.13
-0.83
-3.71
-6.47
-9.14
-11.81
-14.63
-17.77
-21.35
-25.35
-29.62
-33.88
-37.71
-40.57
-41.78
-40.71
-36.94
-30.43
-21.64
-11.44
-0.91
8.95
17.45
24.23
29.27
32.65
34.56
35.16
34.63
33.25
31.34
29.25
27.22
25.35
23.60
21.85
20.00
18.04
16.01
13.95
11.84
9.56
6.99
4.06
0.81
-2.61
-6.01
-9.28
-12.36
-15.28
-18.06
-20.75
-23.41
-26.12
-29.02
-32.15
-35.36
-38.21
-40.01
-40.04
-37.74
-32.95
-25.98
-17.53
-8.47
0.37
8.32
14.98
20.13
23.71
25.73
26.40
26.07
25.27
24.56
24.36
24.77
25.56
26.25
26.43
25.86
24.58
22.80
20.72
18.40
15.83
12.92
9.70
6.24
2.68
-0.91
-4.61
-8.59
-13.01
-17.90
-23.20
-28.70
-34.19
-39.37
-43.82
-46.86
-47.62
-45.30
-39.51
-30.51
-19.28
-7.21
4.31
14.22
22.04
27.75
31.59
33.86
34.83
34.77
33.95
32.67
31.18
29.66
28.13
26.49
24.64
22.50
20.07
17.48
14.91
12.49
10.23
7.96
5.39
2.29
-1.40
-5.43
-9.37
-12.81
-15.55
-17.74
-19.83
-22.40
-25.88
-30.32
-35.33
-40.11
-43.64
-44.91
-43.17
-38.18
-30.27
-20.26
-9.24
1.69
11.68
20.25
27.19
32.48
36.08
37.91
38.04
36.69
34.40
31.82
29.56
27.90
26.73
25.69
24.34
22.43
19.98
17.27
14.62
12.20
9.94
7.61
4.96
1.86
-1.61
-5.26
-8.91
-12.42
-15.76
-19.00
-22.20
-25.50
-29.06
-33.03
-37.38
-41.74
-45.35
-47.14
-46.13
-41.73
-34.12
-24.08
-12.82
-1.56
8.77
17.60
24.64
29.79
33.02
34.40
34.17
32.73
30.59
28.26
26.12
24.34
22.84
21.41
19.77
17.73
15.25
12.44
9.54
6.78
4.28
2.05
-0.11
-2.48
-5.43
-9.23
-13.95
-19.40
-25.13
-30.61
-35.44
-39.58
-43.35
-47.32
-52.05
-57.71
-63.90
-69.66
-73.70
-74.79
-72.21
-65.89
-56.57
-45.56
-34.50
-24.92
-17.94
-13.97
-12.52
-12.28
-11.36
-7.72
0.19
13.01
30.13
49.78
69.50
86.80
99.75
107.50
110.25
109.02
105.20
100.04
94.33
88.36
82.07
75.24
67.84
60.10
52.55
45.93
40.94
38.08
37.46
38.74
41.13
43.58
45.01
44.52
41.64
36.41
29.40
21.65
14.42
8.82
5.58
4.76
5.82
7.83
9.74
10.78
10.56
9.09
6.61
3.49
0.07
-3.32
-6.41
-9.07
-11.39
-13.67
-16.38
-19.92
-24.36
-29.39
-34.47
-39.03
-42.79
-45.84
-48.57
-51.41
-54.67
-58.41
-62.51
-66.82
-71.21
-75.64
-80.06
-84.41
-88.66
-92.87
-97.26
-102.12
-107.54
-113.23
-118.36
-121.76
-122.24
-118.97
-111.86
-101.56
-89.26
-76.29
-63.71
-52.10
-41.59
-32.02
-23.24
-15.13
-7.69
-0.87
5.53
11.81
18.34
25.29
32.55
39.63
45.82
50.33
52.61
52.43
49.94
45.57
39.93
33.59
26.97
20.19
13.16
5.58
-2.74
-11.80
-21.34
-30.93
-40.13
-48.58
-55.93
-61.66
-65.05
-65.27
-61.71
-54.29
-43.55
-30.50
-16.27
-1.74
12.55
26.23
38.96
50.25
59.55
66.48
71.04
73.56
74.61
74.73
74.30
73.48
72.34
70.86
69.10
67.11
64.94
62.54
59.72
56.20
51.71
46.10
39.48
32.18
24.75
17.71
11.37
5.72
0.39
-5.24
-11.78
-19.63
-28.64
-38.04
-46.47
-52.30
-54.08
-51.03
-43.29
-31.91
-18.46
-4.63
8.21
19.17
27.82
34.12
38.16
40.17
40.47
39.45
37.53
35.15
32.67
30.41
28.56
27.20
26.31
25.75
25.27
24.57
23.36
21.41
18.60
15.01
10.80
6.30
1.80
-2.48
-6.52
-10.54
-14.87
-19.90
-25.76
-32.18
-38.35
-43.06
-44.96
-42.94
-36.63
-26.51
-13.86
-0.41
12.23
22.94
31.27
37.32
41.42
43.86
44.78
44.21
42.28
39.38
36.08
33.01
30.60
28.92
27.74
26.65
25.32
23.60
21.46
18.99
16.23
13.19
9.94
6.55
3.12
-0.29
-3.82
-7.70
-12.26
-17.78
-24.29
-31.49
-38.60
-44.50
-47.88
-47.67
-43.33
-35.14
-24.10
-11.69
0.63
11.75
21.07
28.41
33.81
37.35
39.16
39.44
38.53
36.92
35.12
33.59
32.57
32.06
31.89
31.76
31.39
30.65
29.53
28.21
26.85
25.48
23.96
22.01
19.27
15.56
10.82
5.19
-1.17
-8.03
-14.98
-21.39
-26.30
-28.67
-27.75
-23.40
-16.30
-7.76
0.77
8.11
13.65
17.28
19.13
19.32
17.83
14.65
9.95
4.21
-1.82
-7.37
-11.83
-14.94
-16.85
-17.98
-18.82
-19.75
-20.96
-22.43
-24.03
-25.62
-27.11
-28.46
-29.63
-30.60
-31.37
-31.95
-32.41
-32.87
-33.45
-34.21
-34.91
-35.03
-33.68
-29.85
-22.75
-12.18
1.26
16.21
30.94
43.91
54.15
61.44
66.06
68.50
69.12
68.07
65.43
61.35
56.23
50.57
44.90
39.57
34.70
30.23
26.08
22.13
18.28
14.40
10.37
6.03
1.32
-3.77
-9.20
-14.88
-20.69
-26.52
-32.27
-37.90
-43.41
-48.82
-53.97
-58.41
-61.32
-61.70
-58.70
-52.00
-42.06
-29.97
-17.20
-5.17
5.14
13.25
19.13
23.05
25.35
26.37
26.50
26.10
25.60
25.41
25.86
27.10
29.08
31.56
34.21
36.66
38.61
39.80
40.03
39.19
37.30
34.52
31.13
27.48
23.88
20.57
17.73
15.64
14.69
15.48
18.60
24.46
33.11
44.13
56.69
69.75
82.17
92.87
101.02
106.15
108.39
108.52
107.77
107.36
107.94
109.21
109.96
108.59
103.82
95.22
83.44
69.80
55.74
42.31
29.94
18.63
8.26
-1.09
-9.12
-15.47
-19.97
-22.89
-24.83
-26.48
-28.35
-30.57
-33.03
-35.59
-38.40
-41.87
-46.52
-52.55
-59.65
-66.98
-73.51
-78.39
-81.33
-82.58
-82.85
-82.89
-83.18
-83.86
-84.71
-85.42
-85.72
-85.60
-85.24
-84.86
-84.63
-84.44
-84.00
-82.87
-80.66
-77.16
-72.34
-66.38
-59.57
-52.25
-44.83
-37.68
-31.13
-25.38
-20.47
-16.29
-12.64
-9.29
-6.10
-3.05
-0.23
2.24
4.19
5.51
6.21
6.42
6.43
6.67
7.54
9.23
11.69
14.58
17.43
19.89
21.79
23.19
24.29
25.23
26.07
26.77
27.25
27.40
27.22
26.74
26.06
25.34
24.74
24.25
23.68
22.63
20.65
17.44
12.95
7.53
1.68
-4.07
-9.32
-13.86
-17.66
-20.73
-23.20
-25.25
-27.15
-29.20
-31.55
-34.14
-36.56
-38.33
-38.95
-38.22
-36.21
-33.23
-29.69
-25.95
-22.28
-18.82
-15.69
-12.95
-10.70
-8.98
-7.82
-7.19
-6.98
-7.03
-7.14
-7.18
-7.11
-7.03
-7.19
-7.76
-8.80
-10.14
-11.55
-12.86
-14.06
-15.33
-16.82
-18.51
-20.16
-21.37
-21.90
-21.75
-21.26
-20.85
-20.77
-20.92
-20.86
-20.04
-18.11
-15.07
-11.29
-7.31
-3.59
-0.42
2.14
4.13
5.59
6.55
7.07
7.23
7.21
7.21
7.26
7.31
7.12
6.49
5.30
3.66
1.78
-0.05
-1.63
-2.89
-3.91
-4.83
-5.83
-7.08
-8.67
-10.58
-12.68
-14.73
-16.54
-17.96
-19.05
-19.92
-20.69
-21.32
-21.64
-21.39
-20.40
-18.68
-16.35
-13.62
-10.71
-7.79
-5.08
-2.81
-1.19
-0.30
-0.08
-0.30
-0.67
-0.96
-1.04
-0.88
-0.54
-0.12
0.24
0.40
0.30
-0.03
-0.49
-1.01
-1.57
-2.25
-3.17
-4.41
-6.01
-7.87
-9.85
-11.81
-13.62
-15.25
-16.73
-18.19
-19.74
-21.35
-22.77
-23.58
-23.31
-21.74
-19.04
-15.69
-12.28
-9.25
-6.74
-4.66
-2.84
-1.22
0.17
1.21
1.89
2.30
2.59
2.88
3.17
3.38
3.38
3.10
2.58
1.86
1.03
0.14
-0.77
-1.69
-2.59
-3.51
-4.46
-5.54
-6.84
-8.41
-10.23
-12.21
-14.29
-16.47
-18.83
-21.42
-24.23
-27.02
-29.37
-30.76
-30.75
-29.13
-25.97
-21.59
-16.46
-11.02
-5.69
-0.82
3.34
6.62
8.99
10.61
11.74
12.66
13.55
14.39
14.98
15.12
14.72
13.88
12.87
12.02
11.55
11.51
11.76
12.09
12.27
12.11
11.49
10.34
8.64
6.49
4.02
1.45
-1.00
-3.19
-5.12
-6.93
-8.90
-11.29
-14.25
-17.69
-21.19
-24.15
-25.89
-25.93
-24.12
-20.61
-15.85
-10.36
-4.62
0.97
6.13
10.60
14.18
16.82
18.54
19.53
20.01
20.16
20.08
19.82
19.45
19.06
18.80
18.77
19.01
19.46
19.97
20.41
20.61
20.39
19.62
18.24
16.32
14.05
11.72
9.51
7.50
5.60
3.74
1.88
0.07
-1.61
-3.20
-4.87
-6.85
-9.32
-12.34
-15.78
-19.38
-22.79
-25.64
-27.52
-28.03
-26.86
-23.89
-19.25
-13.31
-6.67
0.03
6.26
11.60
15.84
18.97
21.12
22.52
23.36
23.75
23.70
23.17
22.18
20.94
19.80
19.13
19.15
19.80
20.73
21.45
21.56
20.89
19.55
17.77
15.82
13.87
11.94
9.95
7.87
5.70
3.50
1.37
-0.68
-2.66
-4.69
-6.90
-9.39
-12.22
-15.36
-18.64
-21.77
-24.39
-26.11
-26.60
-25.65
-23.22
-19.48
-14.76
-9.50
-4.15
0.93
5.52
9.55
13.00
15.86
18.08
19.54
20.18
20.05
19.39
18.55
17.91
17.70
17.93
18.38
18.75
18.78
18.35
17.50
16.35
15.02
13.54
11.93
10.19
8.38
6.56
4.78
3.02
1.23
-0.66
-2.64
-4.62
-6.48
-8.13
-9.64
-11.25
-13.24
-15.81
-18.89
-22.11
-24.91
-26.63
-26.79
-25.11
-21.65
-16.76
-10.99
-4.97
0.70
5.63
9.61
12.66
14.87
16.40
17.33
17.76
17.82
17.66
17.48
17.38
17.34
17.25
16.92
16.26
15.27
14.09
12.87
11.75
10.78
9.94
9.15
8.30
7.25
5.90
4.16
2.02
-0.38
-2.85
-5.13
-7.04
-8.52
-9.71
-10.86
-12.28
-14.19
-16.62
-19.39
-22.11
-24.25
-25.30
-24.87
-22.82
-19.28
-14.65
-9.45
-4.15
0.91
5.51
9.51
12.81
15.32
16.96
17.75
17.80
17.31
16.54
15.71
14.97
14.39
14.01
13.76
13.59
13.40
13.13
12.75
12.24
11.59
10.73
9.54
7.91
5.85
3.52
1.18
-0.89
-2.55
-3.85
-4.99
-6.27
-7.89
-9.92
-12.32
-14.99
-17.79
-20.59
-23.13
-24.99
-25.61
-24.51
-21.50
-16.84
-11.19
-5.39
-0.17
4.11
7.41
9.94
11.96
13.56
14.73
15.39
15.50
15.16
14.58
13.96
13.44
13.02
12.64
12.23
11.76
11.29
10.89
10.60
10.33
9.93
9.20
8.01
6.41
4.58
2.73
1.01
-0.58
-2.15
-3.82
-5.62
-7.52
-9.46
-11.51
-13.82
-16.56
-19.70
-22.92
-25.64
-27.19
-27.08
-25.18
-21.72
-17.23
-12.22
-7.11
-2.17
2.43
6.46
9.69
11.94
13.17
13.56
13.47
13.29
13.21
13.25
13.17
12.71
11.72
10.26
8.59
7.07
5.92
5.20
4.80
4.60
4.48
4.38
4.20
3.75
2.78
1.11
-1.24
-4.05
-6.92
-9.51
-11.67
-13.56
-15.53
-17.85
-20.49
-23.07
-24.89
-25.30
-23.92
-20.83
-16.47
-11.45
-6.33
-1.51
2.77
6.37
9.19
11.17
12.35
12.88
12.96
12.81
12.53
12.11
11.53
10.79
9.96
9.12
8.29
7.44
6.55
5.63
4.72
3.90
3.19
2.51
1.72
0.67
-0.72
-2.43
-4.33
-6.34
-8.43
-10.67
-13.18
-16.00
-19.00
-21.80
-23.88
-24.64
-23.65
-20.80
-16.33
-10.78
-4.84
0.81
5.64
9.35
11.85
13.28
13.91
14.00
13.80
13.43
12.90
12.27
11.57
10.89
10.27
9.69
9.04
8.26
7.41
6.59
5.93
5.42
4.88
4.02
2.60
0.63
-1.67
-3.94
-5.94
-7.64
-9.28
-11.26
-13.82
-16.97
-20.36
-23.40
-25.41
-25.85
-24.43
-21.19
-16.52
-11.00
-5.33
-0.11
4.24
7.53
9.82
11.31
12.19
12.57
12.48
11.92
10.93
9.67
8.39
7.31
6.55
6.08
5.77
5.45
4.94
4.05
2.66
0.69
-1.78
-4.53
-7.21
-9.56
-11.51
-13.34
-15.58
-18.78
-23.32
-29.13
-35.68
-42.15
-47.69
-51.72
-54.08
-55.05
-55.24
-55.38
-56.07
-57.52
-59.41
-60.83
-60.43
-56.93
-49.58
-38.68
-25.57
-12.27
-0.72
7.87
13.37
16.54
18.46
19.99
21.46
22.77
23.70
24.28
24.75
25.43
26.36
27.19
27.29
26.06
23.30
19.23
14.51
9.78
5.44
1.42
-2.79
-7.82
-14.08
-21.49
-29.32
-36.44
-41.66
-44.22
-43.99
-41.56
-37.97
-34.36
-31.62
-30.20
-30.14
-31.20
-33.08
-35.44
-38.03
-40.65
-43.33
-46.38
-50.35
-55.75
-62.63
-70.32
-77.45
-82.34
-83.63
-80.76
-74.15
-64.94
-54.56
-44.31
-35.06
-27.28
-21.07
-16.23
-12.24
-8.41
-4.02
1.35
7.67
14.48
21.05
26.72
31.08
34.08
35.95
37.05
37.80
38.64
39.99
42.18
45.15
48.39
50.80
50.97
47.58
39.98
28.47
14.31
-0.64
-14.53
-26.02
-34.50
-40.00
-42.80
-43.11
-41.07
-36.84
-30.92
-24.17
-17.65
-12.23
-8.31
-5.71
-3.87
-2.24
-0.57
1.01
2.10
2.29
1.27
-1.08
-4.68
-9.21
-13.92
-17.68
-19.05
-16.69
-9.73
1.83
17.17
34.88
53.34
71.18
87.39
101.31
112.51
120.60
125.29
126.47
124.36
119.56
113.01
105.77
98.77
92.61
87.45
83.09
79.18
75.39
71.57
67.70
63.79
59.75
55.41
50.52
44.96
38.80
32.28
25.66
19.03
12.26
4.94
-3.36
-12.96
-23.73
-35.04
-45.73
-54.31
-59.24
-59.40
-54.39
-44.71
-31.66
-16.96
-2.31
10.98
22.16
30.94
37.33
41.44
43.47
43.70
42.57
40.67
38.63
36.96
35.90
35.42
35.29
35.21
34.99
34.56
33.94
33.12
31.97
30.30
27.94
24.85
21.20
17.29
13.45
9.83
6.37
2.79
-1.24
-5.89
-11.04
-16.25
-20.69
-23.42
-23.54
-20.49
-14.25
-5.39
5.06
15.92
26.12
34.93
41.97
47.15
50.52
52.17
52.27
51.11
49.10
46.70
44.28
42.11
40.29
38.83
37.65
36.68
35.72
34.58
33.01
30.85
28.06
24.73
21.03
17.08
12.97
8.67
4.10
-0.85
-6.29
-12.30
-18.84
-25.63
-32.06
-37.24
-40.15
-39.96
-36.33
-29.60
-20.65
-10.67
-0.76
8.28
16.07
22.49
27.57
31.28
33.56
34.35
33.71
31.86
29.18
26.14
23.19
20.72
18.89
17.65
16.66
15.47
13.63
10.86
7.17
2.77
-2.00
-6.78
-11.23
-15.10
-18.24
-20.72
-22.90
-25.43
-29.03
-34.08
-40.30
-46.62
-51.43
-53.21
-51.09
-45.18
-36.46
-26.33
-16.05
-6.41
2.25
9.85
16.26
21.19
24.31
25.44
24.69
22.50
19.45
16.15
13.03
10.31
8.04
6.20
4.72
3.49
2.36
1.15
-0.32
-2.12
-4.20
-6.39
-8.52
-10.48
-12.30
-14.08
-16.09
-18.65
-22.16
-26.90
-32.85
-39.46
-45.62
-49.86
-50.85
-47.80
-40.83
-30.84
-19.10
-6.79
5.32
16.85
27.56
37.22
45.50
52.21
57.45
61.69
65.57
69.54
73.59
77.22
79.78
80.80
80.31
78.75
76.65
74.28
71.42
67.56
62.29
55.60
47.86
39.55
30.76
21.04
9.50
-4.71
-21.92
-41.50
-61.91
-81.00
-96.45
-106.35
-109.48
-105.62
-95.57
-81.03
-64.30
-47.79
-33.46
-22.49
-15.06
-10.63
-8.30
-7.20
-6.75
-6.70
-6.94
-7.32
-7.63
-7.71
-7.57
-7.49
-7.88
-9.10
-11.26
-14.16
-17.40
-20.54
-23.28
-25.49
-27.23
-28.76
-30.45
-32.76
-36.09
-40.64
-46.19
-52.02
-56.97
-59.71
-59.05
-54.36
-45.67
-33.72
-19.75
-5.13
8.86
21.21
31.25
38.54
42.89
44.31
43.08
39.78
35.23
30.34
25.87
22.27
19.67
17.89
16.67
15.71
14.82
13.88
12.83
11.60
10.15
8.48
6.61
4.54
2.21
-0.57
-4.03
-8.45
-14.02
-20.63
-27.78
-34.55
-39.71
-42.04
-40.67
-35.39
-26.74
-15.84
-4.17
6.86
16.19
23.19
27.68
29.77
29.73
27.91
24.68
20.45
15.66
10.77
6.21
2.28
-0.92
-3.53
-5.80
-8.03
-10.42
-13.00
-15.67
-18.28
-20.75
-23.11
-25.54
-28.32
-31.70
-35.91
-40.94
-46.54
-52.10
-56.68
-59.14
-58.42
-53.88
-45.50
-34.00
-20.66
-6.96
5.79
16.67
25.16
31.04
34.19
34.54
32.20
27.61
21.59
15.18
9.40
4.87
1.67
-0.63
-2.69
-5.10
-8.10
-11.56
-15.12
-18.45
-21.47
-24.31
-27.29
-30.68
-34.66
-39.31
-44.58
-50.29
-55.93
-60.62
-63.14
-62.23
-57.03
-47.46
-34.34
-19.16
-3.60
10.87
23.24
32.95
39.74
43.50
44.26
42.33
38.32
33.13
27.76
23.04
19.45
17.02
15.39
14.02
12.41
10.35
7.91
5.39
3.08
1.02
-1.05
-3.66
-7.39
-12.66
-19.54
-27.65
-36.14
-43.84
-49.36
-51.46
-49.27
-42.61
-32.07
-18.89
-4.66
9.09
21.18
30.90
37.88
41.95
43.04
41.25
36.99
31.10
24.71
18.97
14.66
11.96
10.47
9.41
8.04
5.96
3.19
0.05
-3.12
-6.14
-9.10
-12.33
-16.27
-21.35
-27.83
-35.70
-44.45
-52.96
-59.65
-62.72
-60.81
-53.38
-41.05
-25.42
-8.52
7.73
21.98
33.58
42.34
48.23
51.20
51.24
48.55
43.73
37.78
31.86
26.94
23.50
21.44
20.21
19.10
17.58
15.47
12.87
10.08
7.29
4.52
1.55
-2.02
-6.60
-12.54
-19.94
-28.57
-37.68
-46.05
-52.16
-54.48
-51.97
-44.37
-32.42
-17.61
-1.78
13.35
26.54
37.08
44.73
49.45
51.40
50.83
48.24
44.32
39.96
35.95
32.87
30.87
29.76
29.08
28.35
27.25
25.66
23.69
21.50
19.23
16.98
14.71
12.37
9.94
7.37
4.64
1.66
-1.64
-5.24
-8.94
-12.24
-14.42
-14.73
-12.59
-7.84
-0.70
8.24
18.21
28.41
38.00
46.18
52.20
55.48
55.78
53.29
48.57
42.41
35.56
28.56
21.70
15.03
8.57
2.33
-3.58
-9.05
-14.04
-18.61
-22.99
-27.46
-32.30
-37.65
-43.45
-49.39
-55.07
-60.07
-64.11
-67.13
-69.37
-71.25
-73.30
-75.92
-79.23
-82.84
-85.93
-87.33
-85.92
-80.96
-72.35
-60.67
-46.98
-32.55
-18.53
-5.79
5.09
13.78
20.05
23.83
25.25
24.73
22.98
20.89
19.29
18.75
19.38
20.89
22.76
24.48
25.70
26.35
26.54
26.47
26.21
25.74
24.89
23.48
21.47
18.90
15.93
12.70
9.35
5.92
2.44
-1.12
-4.83
-8.83
-13.24
-18.03
-22.75
-26.46
-27.79
-25.46
-18.76
-8.03
5.39
19.52
32.50
43.12
51.08
56.69
60.45
62.70
63.53
63.03
61.49
59.49
57.66
56.38
55.58
54.78
53.48
51.44
48.78
45.84
42.88
39.80
36.19
31.57
25.64
18.46
10.41
1.92
-6.60
-14.90
-22.90
-30.58
-37.97
-45.20
-52.40
-59.62
-66.63
-72.77
-77.02
-78.16
-75.33
-68.27
-57.61
-44.68
-31.13
-18.51
-7.86
0.39
6.35
10.41
13.01
14.49
15.04
14.80
13.95
12.75
11.50
10.51
9.95
9.82
10.01
10.40
10.95
11.67
12.63
13.76
14.88
15.68
15.89
15.41
14.33
12.90
11.38
9.91
8.41
6.66
4.37
1.39
-2.14
-5.76
-8.77
-10.46
-10.39
-8.57
-5.45
-1.67
2.16
5.62
8.58
11.07
13.11
14.69
15.71
16.06
15.70
14.65
13.02
10.98
8.75
6.56
4.62
3.01
1.66
0.36
-1.23
-3.37
-6.22
-9.70
-13.60
-17.63
-21.60
-25.48
-29.48
-33.95
-39.33
-46.10
-54.59
-64.78
-76.05
-87.06
-95.95
-100.86
-100.53
-94.91
-85.11
-73.01
-60.47
-48.72
-38.11
-28.38
-19.10
-10.08
-1.46
6.47
13.60
20.14
26.59
33.52
41.27
49.79
58.54
66.60
72.95
76.69
77.31
74.80
69.66
62.68
54.72
46.44
38.17
29.93
21.54
12.77
3.45
-6.37
-16.45
-26.18
-34.68
-40.82
-43.48
-41.85
-35.66
-25.37
-12.00
3.11
18.57
33.13
45.69
55.32
61.27
63.14
60.99
55.34
47.06
37.03
26.01
14.56
3.21
-7.44
-16.62
-23.59
-27.91
-29.65
-29.38
-27.94
-26.20
-24.78
-24.09
-24.31
-25.52
-27.61
-30.30
-33.11
-35.56
-37.43
-38.97
-40.82
-43.67
-47.72
-52.33
-56.01
-56.86
-53.27
-44.54
-31.20
-14.70
3.02
20.21
35.68
48.77
59.17
66.59
70.65
70.99
67.52
60.67
51.44
41.12
31.01
21.99
14.43
8.26
3.17
-1.08
-4.59
-7.35
-9.40
-10.91
-12.23
-13.74
-15.73
-18.29
-21.35
-24.72
-28.16
-31.52
-34.80
-38.10
-41.58
-45.27
-48.86
-51.59
-52.31
-49.83
-43.37
-32.91
-19.34
-4.18
10.91
24.54
35.87
44.54
50.45
53.61
54.08
52.12
48.23
43.18
37.77
32.68
28.26
24.62
21.71
19.46
17.84
16.79
16.11
15.53
14.74
13.50
11.76
9.55
6.86
3.61
-0.44
-5.53
-11.82
-19.31
-27.78
-36.73
-45.38
-52.69
-57.43
-58.51
-55.22
-47.51
-36.11
-22.34
-7.82
5.89
17.58
26.49
32.35
35.32
35.82
34.42
31.70
28.16
24.19
20.10
16.19
12.73
9.90
7.72
6.00
4.39
2.51
0.14
-2.67
-5.70
-8.69
-11.54
-14.40
-17.56
-21.36
-25.93
-31.20
-37.00
-43.03
-48.95
-54.15
-57.73
-58.49
-55.39
-47.86
-36.16
-21.43
-5.26
10.68
25.14
37.42
47.24
54.54
59.37
61.78
61.94
60.20
57.01
52.87
48.31
43.74
39.49
35.73
32.45
29.40
26.23
22.55
18.15
13.08
7.68
2.37
-2.45
-6.67
-10.40
-13.96
-17.71
-21.97
-27.01
-32.95
-39.62
-46.43
-52.20
-55.43
-54.72
-49.36
-39.78
-27.50
-14.68
-3.33
5.31
10.96
14.11
15.50
15.76
15.21
13.99
12.22
10.14
8.03
6.13
4.51
3.11
1.73
0.21
-1.52
-3.40
-5.32
-7.15
-8.85
-10.48
-12.24
-14.33
-16.85
-19.79
-22.95
-26.09
-29.11
-32.13
-35.51
-39.62
-44.52
-49.76
-54.27
-56.66
-55.64
-50.42
-41.06
-28.34
-13.58
1.71
16.19
28.80
38.82
45.83
49.67
50.43
48.54
44.63
39.54
34.04
28.81
24.24
20.53
17.85
16.31
16.05
17.08
19.19
21.84
24.35
26.10
26.71
26.17
24.82
23.12
21.58
20.50
19.88
19.40
18.49
16.44
12.77
7.46
1.19
-4.79
-8.98
-10.07
-7.42
-1.11
8.04
18.81
29.90
40.17
48.66
54.69
57.83
57.97
55.33
50.50
44.31
37.62
31.16
25.36
20.37
16.07
12.26
8.72
5.31
1.99
-1.23
-4.40
-7.59
-10.96
-14.69
-18.92
-23.65
-28.72
-33.84
-38.68
-42.97
-46.63
-49.78
-52.72
-55.88
-59.74
-64.66
-70.66
-77.27
-83.41
-87.53
-87.98
-83.54
-73.91
-59.84
-42.98
-25.33
-8.81
5.27
16.28
24.18
29.24
31.83
32.36
31.19
28.78
25.62
22.18
18.85
15.85
13.25
11.01
9.11
7.54
6.28
5.27
4.33
3.21
1.65
-0.53
-3.40
-6.91
-11.00
-15.54
-20.37
-25.26
-29.99
-34.48
-38.87
-43.58
-49.13
-55.86
-63.62
-71.60
-78.45
-82.55
-82.50
-77.55
-67.71
-53.78
-37.05
-19.04
-1.25
15.04
28.89
39.75
47.48
52.33
54.86
55.83
56.01
56.00
56.14
56.46
56.75
56.66
55.89
54.30
52.00
49.32
46.65
44.30
42.36
40.62
38.68
36.05
32.35
27.44
21.45
14.71
7.67
0.69
-5.98
-12.32
-18.41
-24.47
-30.76
-37.42
-44.28
-50.77
-55.83
-58.20
-56.79
-51.13
-41.59
-29.31
-15.82
-2.59
9.27
19.14
26.78
32.13
35.21
36.17
35.31
33.09
30.01
26.47
22.65
18.60
14.35
10.12
6.33
3.56
2.37
3.06
5.72
10.10
15.72
21.89
27.75
32.35
34.80
34.54
31.44
25.87
18.49
10.00
0.96
-8.20
-16.99
-24.71
-30.35
-32.81
-31.23
-25.29
-15.44
-2.81
11.05
24.47
36.05
44.90
50.65
53.45
53.74
52.00
48.70
44.18
38.75
32.70
26.39
20.12
14.08
8.34
2.84
-2.44
-7.48
-12.21
-16.59
-20.68
-24.67
-28.68
-32.68
-36.47
-39.68
-41.95
-43.14
-43.39
-43.19
-43.13
-43.71
-44.98
-46.42
-46.94
-45.29
-40.52
-32.43
-21.68
-9.62
2.17
12.37
20.17
25.29
27.76
27.74
25.45
21.21
15.57
9.31
3.35
-1.49
-4.68
-6.11
-6.06
-5.00
-3.45
-1.80
-0.31
0.82
1.44
1.33
0.25
-1.96
-5.30
-9.57
-14.42
-19.50
-24.55
-29.50
-34.38
-39.10
-43.30
-46.23
-46.91
-44.47
-38.51
-29.35
-17.97
-5.76
5.90
16.02
24.12
30.11
34.18
36.50
37.22
36.45
34.41
31.47
28.20
25.22
23.05
21.89
21.57
21.61
21.39
20.35
18.21
14.97
10.90
6.34
1.62
-3.04
-7.55
-11.87
-16.07
-20.23
-24.47
-28.90
-33.51
-38.02
-41.85
-44.12
-43.91
-40.54
-33.89
-24.47
-13.34
-1.79
9.03
18.34
25.78
31.34
35.11
37.19
37.78
37.14
35.76
34.23
33.10
32.75
33.24
34.33
35.63
36.71
37.34
37.52
37.51
37.63
38.19
39.21
40.44
41.32
41.16
39.37
35.59
29.87
22.57
14.28
5.76
-2.12
-8.39
-12.09
-12.39
-8.91
-1.83
8.02
19.36
30.83
41.22
49.69
55.71
59.02
59.48
57.09
51.98
44.47
35.00
24.17
12.58
0.86
-10.44
-20.91
-30.27
-38.40
-45.29
-50.90
-55.09
-57.59
-58.05
-56.30
-52.54
-47.43
-42.06
-37.61
-35.11
-35.14
-37.81
-42.84
-49.69
-57.65
-65.72
-72.58
-76.70
-76.65
-71.60
-61.69
-48.09
-32.67
-17.48
-4.12
6.45
13.96
18.58
20.75
21.01
19.92
18.09
16.02
14.13
12.67
11.74
11.36
11.53
12.21
13.28
14.49
15.46
15.76
15.00
12.99
9.75
5.52
0.62
-4.62
-10.00
-15.42
-20.90
-26.51
-32.35
-38.38
-44.39
-49.90
-54.12
-56.09
-54.95
-50.22
-42.07
-31.31
-19.15
-6.94
4.24
13.77
21.47
27.40
31.75
34.65
36.22
36.58
35.98
34.74
33.18
31.48
29.64
27.55
25.08
22.23
19.17
16.13
13.27
10.53
7.70
4.47
0.56
-4.09
-9.41
-15.21
-21.31
-27.55
-33.89
-40.40
-47.17
-54.30
-61.68
-68.82
-74.73
-78.02
-77.20
-71.16
-59.65
-43.51
-24.67
-5.66
10.85
22.75
28.88
29.24
24.89
17.67
9.69
2.85
-1.56
-3.18
-2.46
-0.51
1.44
2.43
2.04
0.44
-1.86
-4.32
-6.72
-9.17
-11.91
-15.14
-18.73
-22.29
-25.32
-27.54
-28.97
-29.94
-30.83
-31.90
-33.20
-34.66
-36.21
-37.89
-39.72
-41.51
-42.66
-42.25
-39.26
-33.00
-23.36
-10.93
3.19
17.73
31.55
43.80
53.91
61.52
66.44
68.66
68.46
66.41
63.29
59.95
57.01
54.78
53.25
52.18
51.31
50.46
49.57
48.63
47.61
46.38
44.74
42.50
39.56
35.94
31.82
27.41
22.87
18.22
13.27
7.73
1.32
-6.08
-14.37
-23.22
-32.06
-40.22
-46.95
-51.52
-53.32
-51.97
-47.48
-40.29
-31.23
-21.32
-11.55
-2.73
4.60
10.13
13.77
15.61
15.91
15.09
13.60
11.84
10.08
8.43
6.89
5.44
4.04
2.66
1.25
-0.23
-1.83
-3.54
-5.32
-7.16
-9.10
-11.20
-13.40
-15.44
-16.78
-16.75
-14.91
-11.28
-6.45
-1.39
2.86
5.56
6.39
5.42
3.00
-0.36
-4.00
-7.18
-9.06
-9.04
-6.94
-3.13
1.61
6.40
10.64
14.15
17.10
19.72
21.99
23.60
24.10
23.21
21.05
18.18
15.37
13.24
12.03
11.49
11.21
10.78
10.09
9.26
8.59
8.31
8.54
9.26
10.38
11.80
13.30
14.48
14.78
13.65
10.71
6.03
0.05
-6.54
-13.04
-19.02
-24.24
-28.63
-32.06
-34.29
-34.89
-33.45
-29.70
-23.69
-15.89
-7.08
1.85
10.07
17.05
22.58
26.74
29.70
31.62
32.58
32.67
32.03
30.86
29.43
27.90
26.32
24.65
22.86
21.02
19.22
17.57
16.04
14.51
12.80
10.75
8.32
5.53
2.44
-0.89
-4.41
-8.04
-11.64
-15.06
-18.18
-21.07
-23.86
-26.75
-29.75
-32.57
-34.56
-34.92
-32.98
-28.49
-21.78
-13.66
-5.14
2.88
9.79
15.27
19.23
21.64
22.49
21.87
20.02
17.38
14.47
11.78
9.67
8.32
7.67
7.59
7.82
8.06
8.00
7.43
6.21
4.38
2.09
-0.39
-2.76
-4.79
-6.36
-7.56
-8.70
-10.28
-12.84
-16.82
-22.27
-28.79
-35.52
-41.24
-44.76
-45.19
-42.21
-36.14
-27.85
-18.42
-8.89
-0.02
7.72
14.14
19.19
22.89
25.28
26.46
26.56
25.79
24.41
22.70
20.95
19.43
18.37
17.81
17.68
17.72
17.67
17.30
16.54
15.41
14.03
12.46
10.69
8.73
6.60
4.44
2.39
0.50
-1.38
-3.63
-6.71
-10.86
-15.85
-20.89
-24.90
-26.83
-26.11
-22.82
-17.64
-11.51
-5.28
0.46
5.39
9.35
12.12
13.48
13.26
11.52
8.67
5.39
2.51
0.71
0.36
1.40
3.48
6.06
8.69
11.06
13.05
14.63
15.79
16.48
16.67
16.43
15.94
15.48
15.33
15.58
16.15
16.76
17.16
17.23
17.18
17.44
18.64
21.35
25.92
32.37
40.40
49.49
59.01
68.29
76.66
83.49
88.17
90.16
89.08
84.82
77.64
68.25
57.63
46.93
37.25
29.51
24.35
22.05
22.42
24.79
28.08
31.03
32.54
31.95
29.16
24.60
18.90
12.73
6.57
0.67
-4.89
-10.21
-15.57
-21.42
-28.25
-36.41
-45.91
-56.27
-66.55
-75.55
-82.13
-85.53
-85.51
-82.45
-77.15
-70.59
-63.69
-57.14
-51.38
-46.63
-42.98
-40.46
-38.99
-38.42
-38.49
-38.88
-39.25
-39.28
-38.75
-37.55
-35.76
-33.64
-31.56
-29.89
-28.88
-28.59
-28.87
-29.53
-30.45
-31.59
-33.00
-34.64
-36.36
-37.93
-39.17
-40.00
-40.52
-40.80
-40.71
-39.82
-37.51
-33.25
-26.85
-18.64
-9.37
0.06
8.87
16.62
23.19
28.68
33.26
37.10
40.31
42.99
45.24
47.15
48.70
49.85
50.50
50.56
49.99
48.77
46.87
44.21
40.68
36.25
31.06
25.40
19.64
14.13
9.05
4.36
-0.18
-4.74
-9.25
-13.22
-15.80
-16.08
-13.47
-8.04
-0.49
7.98
16.21
23.46
29.61
35.12
40.70
46.96
54.19
62.22
70.53
78.28
84.47
88.00
88.03
84.17
76.79
67.00
56.39
46.54
38.50
32.51
27.98
23.87
19.11
12.97
5.24
-3.89
-13.98
-24.50
-34.95
-44.77
-53.44
-60.44
-65.44
-68.36
-69.43
-69.00
-67.37
-64.57
-60.41
-54.65
-47.16
-38.12
-27.98
-17.40
-7.07
2.22
9.62
14.22
15.23
12.30
5.74
-3.38
-13.51
-23.04
-30.80
-36.21
-39.24
-40.13
-39.17
-36.63
-32.89
-28.58
-24.61
-21.92
-21.20
-22.53
-25.36
-28.73
-31.63
-33.38
-33.69
-32.59
-30.29
-27.12
-23.50
-20.03
-17.33
-15.86
-15.57
-15.84
-15.71
-14.32
-11.33
-7.14
-2.65
1.12
3.54
4.51
4.43
3.83
3.13
2.51
1.89
1.10
0.00
-1.42
-3.02
-4.60
-5.95
-6.98
-7.76
-8.49
-9.41
-10.71
-12.43
-14.50
-16.78
-19.22
-21.77
-24.42
-27.06
-29.50
-31.52
-32.98
-33.91
-34.45
-34.84
-35.24
-35.65
-35.88
-35.52
-34.07
-31.02
-26.10
-19.33
-11.10
-2.04
7.24
16.24
24.75
32.70
39.94
46.10
50.59
52.76
52.24
49.22
44.54
39.42
35.05
32.07
30.37
29.17
27.46
24.45
19.96
14.38
8.45
2.85
-2.02
-6.19
-9.92
-13.59
-17.42
-21.46
-25.57
-29.57
-33.37
-36.99
-40.62
-44.44
-48.53
-52.80
-57.07
-61.20
-65.20
-69.11
-72.81
-75.83
-77.34
-76.42
-72.43
-65.38
-55.94
-45.22
-34.24
-23.70
-13.79
-4.35
4.82
13.75
22.32
30.32
37.64
44.33
50.44
55.87
60.25
63.00
63.62
61.99
58.52
54.00
49.37
45.39
42.43
40.49
39.32
38.45
37.30
35.12
30.99
23.99
13.59
-0.01
-15.74
-31.91
-46.81
-59.32
-69.26
-77.24
-84.08
-90.31
-95.78
-99.84
-101.70
-100.99
-97.79
-92.53
-85.51
-76.64
-65.52
-51.74
-35.47
-17.69
-0.15
15.18
26.78
34.09
37.71
39.10
40.02
41.94
45.62
51.03
57.51
64.09
69.84
74.04
76.39
76.96
76.07
74.10
71.32
67.88
63.81
59.16
54.12
48.91
43.66
38.32
32.67
26.43
19.44
11.76
3.69
-4.33
-11.81
-18.27
-23.22
-26.17
-26.77
-24.86
-20.64
-14.62
-7.59
-0.35
6.37
11.99
16.10
18.42
18.86
17.61
15.11
12.01
8.95
6.34
4.30
2.68
1.25
-0.12
-1.34
-2.22
-2.55
-2.24
-1.46
-0.50
0.25
0.44
-0.14
-1.58
-3.75
-6.37
-9.06
-11.41
-13.13
-14.08
-14.37
-14.23
-13.95
-13.75
-13.75
-13.96
-14.27
-14.48
-14.16
-12.64
-9.10
-2.82
6.50
18.48
32.22
46.58
60.71
74.24
87.13
99.18
109.65
117.15
120.18
117.83
110.35
99.24
86.75
75.10
65.83
59.58
56.29
55.55
56.79
59.23
61.70
62.53
59.94
52.64
40.52
24.91
8.35
-6.25
-16.49
-21.10
-20.10
-14.43
-5.42
5.65
17.65
29.63
40.65
49.88
56.62
60.55
61.73
60.63
58.08
55.15
52.95
52.41
53.93
57.19
61.26
64.95
67.21
67.38
65.21
60.65
53.73
44.49
33.28
20.83
8.40
-2.60
-10.98
-16.13
-18.05
-17.10
-13.62
-7.79
0.01
8.88
17.08
22.35
22.63
16.99
6.11
-7.89
-22.35
-35.09
-45.16
-52.81
-59.01
-64.70
-70.30
-75.69
-80.51
-84.54
-87.79
-90.39
-92.32
-93.31
-92.93
-90.82
-87.01
-82.04
-76.74
-71.85
-67.65
-63.86
-59.74
-54.49
-47.62
-39.18
-29.73
-20.15
-11.41
-4.43
0.07
1.58
-0.05
-4.59
-11.41
-19.65
-28.44
-37.14
-45.41
-53.19
-60.58
-67.74
-74.81
-81.91
-89.03
-96.00
-102.43
-107.79
-111.47
-113.07
-112.51
-110.09
-106.45
-102.29
-98.16
-94.30
-90.52
-86.27
-80.77
-73.26
-63.31
-51.01
-37.05
-22.52
-8.64
3.66
14.07
22.90
31.01
39.34
48.53
58.60
68.87
78.28
85.73
90.52
92.54
92.22
90.26
87.32
83.86
80.02
75.76
71.03
65.89
60.54
55.25
50.23
45.50
40.96
36.44
31.94
27.65
23.89
20.83
18.32
15.85
12.79
8.67
3.45
-2.53
-8.73
-14.65
-20.03
-24.76
-28.77
-31.99
-34.41
-36.12
-37.34
-38.26
-38.93
-39.15
-38.66
-37.36
-35.59
-34.10
-33.76
-35.17
-38.34
-42.64
-47.04
-50.43
-51.98
-51.38
-48.83
-45.07
-41.11
-37.96
-36.30
-36.19
-37.01
-37.59
-36.59
-32.98
-26.36
-17.18
-6.49
4.44
14.59
23.59
31.75
39.76
48.19
57.01
65.33
71.61
74.17
71.90
64.80
54.09
41.93
30.80
22.85
19.30
20.21
24.50
30.34
35.70
38.84
38.66
34.82
27.67
18.15
7.57
-2.61
-10.94
-16.22
-17.51
-14.29
-6.47
5.47
20.38
36.53
51.84
64.29
72.56
76.30
76.16
73.28
68.83
63.45
57.25
50.00
41.46
31.76
21.37
10.97
1.26
-7.36
-14.85
-21.58
-28.24
-35.60
-44.27
-54.40
-65.46
-76.31
-85.53
-91.96
-95.18
-95.61
-94.20
-91.74
-88.24
-82.76
-73.89
-60.70
-43.57
-24.45
-6.30
8.02
16.80
19.94
18.76
15.20
10.98
7.12
3.91
1.23
-1.02
-2.78
-3.84
-4.15
-3.96
-3.87
-4.54
-6.40
-9.38
-12.89
-16.15
-18.62
-20.25
-21.65
-23.72
-27.18
-32.21
-38.30
-44.51
-49.85
-53.65
-55.79
-56.66
-57.00
-57.72
-59.70
-63.66
-69.90
-78.12
-87.34
-96.18
-103.44
-108.69
-112.61
-116.72
-122.61
-131.15
-142.01
-153.96
-165.61
-176.09
-185.24
-193.12
-199.42
-203.20
-203.37
-199.42
-192.01
-182.77
-173.36
-164.44
-155.11
-143.42
-127.54
-106.96
-82.84
-57.52
-33.22
-11.14
8.84
27.51
45.44
62.29
76.87
87.78
94.16
96.29
95.51
93.63
92.26
92.30
93.82
96.29
98.93
101.11
102.49
103.08
102.97
102.16
100.40
97.17
92.08
85.03
76.42
66.98
57.43
48.08
38.79
29.22
19.25
9.39
0.83
-4.88
-6.21
-2.19
7.40
22.02
40.43
60.86
81.28
99.69
114.40
124.41
129.56
130.43
128.10
123.80
118.58
113.17
107.89
102.66
97.12
90.76
83.12
74.04
63.79
53.01
42.56
33.26
25.66
19.85
15.51
11.95
8.30
3.70
-2.44
-10.20
-19.03
-27.70
-34.59
-38.10
-37.14
-31.44
-21.65
-9.01
4.98
18.99
32.01
43.43
52.80
59.80
64.13
65.58
64.18
60.25
54.45
47.74
41.16
35.61
31.64
29.31
28.18
27.47
26.44
24.61
21.92
18.65
15.23
11.92
8.72
5.34
1.36
-3.59
-9.67
-16.79
-24.55
-32.24
-38.86
-43.23
-44.20
-40.97
-33.31
-21.69
-7.22
8.66
24.43
38.86
51.07
60.59
67.25
71.10
72.33
71.32
68.62
64.90
60.89
57.22
54.28
52.13
50.50
48.97
47.09
44.59
41.42
37.69
33.53
29.03
24.22
19.14
13.87
8.53
3.13
-2.50
-8.66
-15.60
-23.16
-30.47
-36.09
-38.35
-35.99
-28.72
-17.30
-3.35
11.23
24.81
36.29
45.18
51.39
55.04
56.36
55.67
53.46
50.31
46.84
43.55
40.77
38.57
36.83
35.30
33.72
31.87
29.60
26.82
23.49
19.65
15.41
10.97
6.57
2.45
-1.30
-4.71
-7.97
-11.38
-15.30
-20.00
-25.56
-31.65
-37.45
-41.74
-43.17
-40.69
-33.96
-23.52
-10.62
3.15
16.31
27.81
37.07
43.87
48.20
50.15
49.93
47.93
44.74
41.05
37.41
34.10
31.05
27.90
24.30
20.10
15.47
10.79
6.44
2.52
-1.15
-4.92
-9.08
-13.70
-18.53
-23.24
-27.49
-31.12
-34.14
-36.69
-39.00
-41.35
-44.09
-47.51
-51.66
-56.11
-59.95
-61.93
-60.87
-56.09
-47.78
-36.93
-25.00
-13.44
-3.25
5.11
11.63
16.40
19.50
20.94
20.84
19.57
17.77
16.16
15.23
15.07
15.37
15.63
15.42
14.60
13.29
11.76
10.25
8.84
7.41
5.77
3.74
1.26
-1.61
-4.66
-7.68
-10.50
-13.02
-15.30
-17.51
-19.88
-22.71
-26.20
-30.33
-34.72
-38.57
-40.81
-40.38
-36.70
-29.91
-20.92
-11.07
-1.73
6.14
12.15
16.32
18.89
20.08
20.00
18.81
16.78
14.37
12.08
10.36
9.40
9.15
9.33
9.60
9.65
9.33
8.63
7.62
6.37
4.84
2.93
0.51
-2.45
-5.76
-9.10
-12.11
-14.59
-16.56
-18.28
-20.07
-22.24
-24.91
-28.03
-31.32
-34.35
-36.54
-37.26
-35.98
-32.48
-26.90
-19.80
-11.97
-4.25
2.72
8.53
13.00
16.09
17.80
18.24
17.53
15.95
13.88
11.74
9.93
8.67
7.99
7.74
7.67
7.50
7.08
6.34
5.34
4.12
2.73
1.15
-0.65
-2.66
-4.83
-7.07
-9.24
-11.22
-12.87
-14.13
-14.96
-15.42
-15.70
-16.03
-16.67
-17.75
-19.18
-20.59
-21.38
-20.86
-18.52
-14.21
-8.18
-1.03
6.45
13.47
19.35
23.68
26.21
26.97
26.11
24.01
21.14
17.98
14.96
12.36
10.29
8.76
7.73
7.10
6.73
6.44
6.09
5.57
4.86
4.04
3.21
2.43
1.68
0.84
-0.32
-1.96
-4.15
-6.80
-9.64
-12.35
-14.70
-16.67
-18.47
-20.41
-22.82
-25.84
-29.35
-32.98
-36.16
-38.24
-38.57
-36.70
-32.48
-26.17
-18.45
-10.28
-2.64
3.66
8.23
11.06
12.44
12.77
12.41
11.63
10.61
9.51
8.50
7.76
7.39
7.37
7.55
7.69
7.55
7.02
6.12
5.05
4.02
3.14
2.34
1.35
-0.10
-2.20
-4.88
-7.88
-10.80
-13.35
-15.46
-17.33
-19.27
-21.57
-24.39
-27.71
-31.35
-35.02
-38.31
-40.70
-41.61
-40.50
-37.02
-31.22
-23.57
-14.92
-6.29
1.38
7.47
11.73
14.20
15.10
14.67
13.13
10.75
7.90
5.06
2.73
1.22
0.58
0.52
0.60
0.43
-0.12
-0.89
-1.55
-1.83
-1.68
-1.33
-1.22
-1.78
-3.23
-5.54
-8.36
-11.27
-13.91
-16.12
-18.01
-19.85
-21.98
-24.66
-27.95
-31.61
-35.15
-37.78
-38.67
-37.16
-32.93
-26.22
-17.69
-8.36
0.79
8.87
15.29
19.73
22.08
22.45
21.20
18.85
16.05
13.41
11.37
10.13
9.70
9.92
10.63
11.63
12.73
13.75
14.49
14.74
14.30
13.01
10.79
7.73
4.07
0.19
-3.52
-6.75
-9.45
-11.78
-14.07
-16.70
-19.96
-23.90
-28.20
-32.19
-34.95
-35.51
-33.18
-27.82
-19.90
-10.43
-0.65
8.31
15.58
20.70
23.52
24.16
22.95
20.33
16.91
13.32
10.15
7.88
6.76
6.83
7.81
9.30
10.81
11.89
12.27
11.88
10.80
9.25
7.46
5.62
3.85
2.21
0.67
-0.80
-2.25
-3.80
-5.65
-8.05
-11.25
-15.23
-19.54
-23.22
-25.05
-23.93
-19.39
-11.79
-2.25
7.75
16.90
24.36
29.83
33.39
35.25
35.58
34.51
32.20
28.92
25.07
21.05
17.22
13.83
10.99
8.77
7.16
6.11
5.48
5.02
4.38
3.19
1.18
-1.75
-5.53
-9.97
-14.90
-20.19
-25.72
-31.34
-36.78
-41.68
-45.58
-47.97
-48.32
-46.09
-40.81
-32.32
-20.87
-7.26
7.31
21.50
34.18
44.66
52.69
58.35
61.77
63.13
62.63
60.68
57.92
55.18
53.29
52.80
53.85
56.11
58.98
61.69
63.63
64.35
63.70
61.81
58.96
55.51
51.71
47.57
42.87
37.14
29.83
20.45
8.75
-5.12
-20.45
-36.00
-50.05
-60.75
-66.61
-66.96
-62.20
-53.75
-43.55
-33.53
-25.06
-18.81
-14.76
-12.55
-11.72
-11.87
-12.67
-13.82
-15.05
-16.10
-16.84
-17.24
-17.46
-17.71
-18.24
-19.17
-20.50
-22.09
-23.68
-24.97
-25.70
-25.71
-24.93
-23.43
-21.35
-18.90
-16.31
-13.82
-11.70
-10.15
-9.29
-9.08
-9.20
-9.07
-7.96
-5.22
-0.54
5.90
13.40
20.93
27.51
32.44
35.47
36.72
36.55
35.38
33.53
31.24
28.68
26.02
23.45
21.16
19.26
17.83
16.83
16.14
15.56
14.90
13.94
12.56
10.75
8.55
6.05
3.36
0.53
-2.38
-5.37
-8.41
-11.46
-14.48
-17.49
-20.46
-23.27
-25.63
-27.10
-27.20
-25.56
-22.17
-17.41
-11.97
-6.62
-1.99
1.65
4.31
6.22
7.60
8.55
9.08
9.13
8.68
7.85
6.80
5.76
4.88
4.21
3.73
3.36
3.02
2.66
2.24
1.77
1.18
0.42
-0.52
-1.56
-2.54
-3.35
-3.97
-4.59
-5.54
-7.18
-9.68
-12.94
-16.48
-19.61
-21.65
-22.12
-20.94
-18.35
-14.88
-11.14
-7.63
-4.67
-2.36
-0.61
0.71
1.77
2.75
3.84
5.23
7.04
9.24
11.65
13.97
15.87
17.16
17.80
17.87
17.49
16.69
15.47
13.83
11.79
9.50
7.17
4.95
2.92
1.03
-0.86
-2.87
-5.09
-7.51
-10.02
-12.41
-14.35
-15.53
-15.65
-14.53
-12.15
-8.69
-4.48
0.04
4.37
8.11
10.95
12.79
13.67
13.72
13.13
12.09
10.79
9.39
8.06
6.91
6.02
5.45
5.22
5.39
5.99
6.96
8.16
9.34
10.21
10.60
10.44
9.78
8.76
7.46
5.92
4.18
2.26
0.20
-1.96
-4.21
-6.52
-8.80
-10.83
-12.28
-12.77
-12.07
-10.19
-7.44
-4.36
-1.53
0.61
1.88
2.36
2.30
2.01
1.70
1.45
1.21
0.84
0.23
-0.67
-1.76
-2.87
-3.79
-4.37
-4.59
-4.52
-4.34
-4.24
-4.40
-4.95
-5.90
-7.19
-8.65
-10.08
-11.30
-12.24
-12.99
-13.77
-14.80
-16.15
-17.61
-18.76
-19.04
-18.00
-15.44
-11.46
-6.46
-1.01
4.33
9.06
12.84
15.53
17.11
17.68
17.36
16.37
14.92
13.29
11.73
10.47
9.64
9.31
9.41
9.78
10.22
10.48
10.37
9.77
8.70
7.26
5.67
4.08
2.63
1.30
-0.01
-1.48
-3.26
-5.47
-8.12
-11.03
-13.89
-16.19
-17.41
-17.10
-15.09
-11.55
-6.98
-2.06
2.54
6.27
8.86
10.27
10.65
10.24
9.26
7.90
6.29
4.45
2.35
-0.04
-2.71
-5.49
-8.08
-10.09
-11.16
-11.14
-10.14
-8.48
-6.57
-4.77
-3.27
-2.10
-1.16
-0.36
0.36
0.97
1.34
1.32
0.70
-0.69
-2.94
-5.86
-9.05
-11.84
-13.56
-13.71
-12.15
-9.20
-5.45
-1.65
1.60
3.94
5.23
5.55
5.03
3.88
2.35
0.75
-0.59
-1.44
-1.75
-1.68
-1.50
-1.48
-1.70
-2.02
-2.16
-1.88
-1.05
0.23
1.72
3.07
3.98
4.27
3.92
3.04
1.88
0.68
-0.36
-1.19
-1.86
-2.51
-3.28
-4.23
-5.29
-6.33
-7.10
-7.35
-6.78
-5.17
-2.41
1.34
5.75
10.29
14.50
18.12
21.17
23.85
26.34
28.68
30.80
32.65
34.36
36.30
38.96
42.75
47.77
53.72
60.02
66.03
71.31
75.68
79.25
82.27
85.05
87.77
90.42
92.66
93.80
92.82
88.64
80.47
68.15
52.31
34.25
15.48
-2.79
-20.01
-36.36
-52.38
-68.33
-83.73
-97.29
-107.20
-111.86
-110.50
-103.48
-92.12
-78.13
-62.99
-47.49
-31.78
-15.66
0.96
17.83
34.38
50.00
64.23
76.91
87.99
97.37
104.72
109.52
111.35
110.06
105.99
99.81
92.25
83.88
75.01
65.79
56.36
47.02
38.11
29.90
22.41
15.42
8.59
1.68
-5.31
-12.21
-18.73
-24.69
-30.03
-34.85
-39.27
-43.29
-46.76
-49.33
-50.58
-50.09
-47.72
-43.61
-38.29
-32.40
-26.57
-21.28
-16.76
-13.17
-10.69
-9.60
-10.16
-12.52
-16.54
-21.81
-27.76
-33.77
-39.38
-44.31
-48.50
-51.96
-54.76
-56.91
-58.43
-59.33
-59.73
-59.86
-60.03
-60.48
-61.34
-62.48
-63.68
-64.69
-65.35
-65.63
-65.60
-65.33
-64.93
-64.51
-64.25
-64.32
-64.77
-65.36
-65.56
-64.66
-62.07
-57.56
-51.36
-44.06
-36.38
-28.86
-21.73
-14.94
-8.29
-1.51
5.62
13.19
21.07
28.84
35.80
41.10
44.09
44.63
43.22
40.88
38.75
37.74
38.21
40.11
43.10
46.74
50.52
53.79
55.86
56.22
54.85
52.34
49.68
47.67
46.42
45.14
42.49
37.31
29.28
19.19
8.59
-0.80
-7.77
-11.88
-13.47
-13.21
-11.86
-10.02
-8.05
-6.20
-4.70
-3.76
-3.58
-4.29
-5.75
-7.61
-9.38
-10.55
-10.83
-10.22
-9.01
-7.60
-6.40
-5.63
-5.35
-5.55
-6.09
-6.88
-7.84
-8.95
-10.25
-11.80
-13.70
-16.03
-18.79
-21.95
-25.44
-29.15
-32.85
-36.20
-38.71
-39.82
-39.08
-36.35
-31.90
-26.35
-20.47
-14.99
-10.37
-6.81
-4.25
-2.54
-1.52
-1.10
-1.26
-2.05
-3.48
-5.49
-7.91
-10.52
-13.08
-15.46
-17.70
-19.98
-22.55
-25.61
-29.23
-33.34
-37.79
-42.44
-47.23
-52.23
-57.50
-63.10
-69.05
-75.31
-81.85
-88.55
-95.24
-101.58
-107.03
-110.92
-112.53
-111.30
-107.04
-100.01
-90.86
-80.49
-69.77
-59.39
-49.77
-41.12
-33.57
-27.30
-22.54
-19.47
-18.11
-18.16
-19.09
-20.25
-21.08
-21.13
-20.17
-18.09
-14.81
-10.36
-4.92
1.13
7.22
12.74
17.20
20.34
22.14
22.67
21.96
19.94
16.52
11.79
6.16
0.44
-4.31
-7.12
-7.38
-5.16
-1.14
3.54
7.71
10.39
11.00
9.36
5.58
-0.03
-7.07
-15.09
-23.58
-32.09
-40.31
-48.16
-55.81
-63.54
-71.58
-79.90
-88.20
-95.92
-102.52
-107.57
-110.96
-112.89
-113.72
-113.82
-113.38
-112.27
-110.12
-106.40
-100.67
-92.70
-82.45
-70.06
-55.68
-39.52
-21.94
-3.52
14.89
32.40
48.30
62.35
74.80
86.16
96.74
106.49
114.92
121.44
125.79
128.27
129.68
130.96
132.76
135.18
137.75
139.71
140.47
139.74
137.66
134.53
130.66
126.15
120.95
114.98
108.29
101.11
93.75
86.41
78.99
71.06
61.96
51.20
38.76
25.33
12.25
1.20
-6.28
-9.25
-7.62
-2.12
6.03
15.51
25.31
34.93
44.34
53.84
63.66
73.73
83.48
91.98
98.25
101.77
102.68
101.81
100.22
98.74
97.73
97.02
96.23
94.98
92.96
89.71
84.55
76.56
65.02
49.77
31.46
11.46
-8.65
-27.53
-44.39
-58.83
-70.59
-79.20
-84.01
-84.48
-80.59
-73.06
-63.24
-52.67
-42.64
-33.79
-26.21
-19.65
-13.99
-9.36
-6.10
-4.48
-4.38
-5.24
-6.25
-6.69
-6.18
-4.84
-3.10
-1.51
-0.51
-0.25
-0.65
-1.56
-2.81
-4.35
-6.20
-8.35
-10.82
-13.60
-16.79
-20.60
-25.34
-31.25
-38.32
-46.08
-53.59
-59.59
-62.86
-62.52
-58.34
-50.79
-40.86
-29.85
-18.93
-8.98
-0.42
6.65
12.34
16.75
19.91
21.82
22.56
22.33
21.50
20.50
19.66
19.11
18.75
18.36
17.70
16.64
15.11
13.13
10.69
7.80
4.47
0.80
-2.96
-6.54
-9.70
-12.39
-14.85
-17.50
-20.65
-24.26
-27.69
-29.81
-29.37
-25.49
-18.14
-8.14
3.10
14.09
23.75
31.58
37.63
42.18
45.52
47.92
49.60
50.87
52.08
53.54
55.43
57.69
60.11
62.42
64.43
65.99
67.06
67.62
67.72
67.38
66.58
65.13
62.68
58.75
52.91
44.99
35.18
23.94
11.80
-0.87
-13.97
-27.63
-42.07
-57.32
-73.11
-88.83
-103.57
-116.44
-126.55
-133.24
-136.17
-135.40
-131.43
-125.02
-117.02
-108.18
-99.06
-89.99
-81.01
-72.05
-62.91
-53.31
-42.84
-31.17
-18.24
-4.67
8.62
20.72
31.02
39.42
46.21
51.88
56.86
61.15
63.85
64.06
61.33
55.87
48.49
40.31
32.50
25.96
20.83
15.81
9.54
1.23
-9.02
-20.49
-32.41
-43.94
-54.16
-62.31
-68.52
-72.36
-72.88
-69.06
-60.60
-48.52
-34.58
-20.63
-2.49
20.48
45.64
68.68
86.82
99.90
108.88
113.77
115.73
115.23
111.62
104.81
95.43
84.27
73.41
63.74
55.56
49.09
44.24
40.14
36.20
32.21
28.29
24.51
20.62
16.44
12.21
8.30
4.76
1.87
0.04
-0.34
0.80
2.95
5.35
7.33
8.23
7.49
4.98
1.09
-3.46
-7.91
-11.82
-15.02
-17.49
-19.37
-20.88
-22.21
-23.52
-25.07
-27.16
-30.21
-34.50
-40.04
-46.55
-53.40
-59.74
-64.65
-67.31
-67.26
-64.57
-59.80
-53.87
-47.75
-42.14
-37.38
-33.46
-30.26
-27.68
-25.83
-24.95
-25.28
-26.88
-29.61
-33.14
-37.00
-40.80
-44.25
-47.27
-49.95
-52.39
-54.71
-56.86
-58.62
-59.73
-59.89
-58.84
-56.41
-52.42
-46.71
-39.21
-29.99
-19.39
-8.04
3.23
13.62
22.46
29.37
34.22
37.10
38.19
37.71
35.92
33.07
29.41
25.17
20.61
16.02
11.80
8.37
6.07
5.04
5.09
5.81
6.70
7.38
7.73
7.81
7.72
7.46
6.83
5.60
3.61
0.90
-2.34
-5.82
-9.33
-12.69
-15.83
-18.73
-21.46
-24.22
-27.37
-31.21
-35.80
-40.74
-45.16
-47.95
-48.10
-45.06
-38.93
-30.38
-20.50
-10.42
-1.12
6.76
12.97
17.59
20.82
22.89
24.00
24.33
24.17
23.99
24.37
25.81
28.45
31.92
35.30
37.40
37.16
34.10
28.44
21.09
13.22
5.92
-0.16
-4.88
-8.44
-11.20
-13.45
-15.44
-17.46
-19.90
-23.26
-27.96
-34.11
-41.45
-49.47
-57.54
-65.22
-72.22
-78.25
-82.82
-85.09
-84.09
-79.00
-69.59
-56.38
-40.48
-23.30
-6.16
9.87
24.14
36.26
46.04
53.53
59.02
63.05
66.30
69.47
73.06
77.29
82.02
86.90
91.44
95.20
97.85
99.25
99.41
98.36
96.10
92.48
87.24
80.20
71.37
61.10
50.04
39.06
28.99
20.40
13.41
7.70
2.63
-2.56
-8.55
-15.76
-24.29
-33.84
-43.70
-52.81
-59.92
-63.85
-63.84
-59.74
-52.17
-42.32
-31.72
-21.82
-13.67
-7.81
-4.28
-2.78
-2.84
-4.00
-5.83
-7.92
-9.83
-11.14
-11.48
-10.65
-8.67
-5.68
-1.89
2.56
7.55
12.93
18.34
23.17
26.61
27.89
26.57
22.70
16.82
9.80
2.50
-4.45
-10.89
-16.98
-23.10
-29.58
-36.58
-44.11
-51.97
-59.83
-67.11
-72.97
-76.38
-76.38
-72.37
-64.39
-53.15
-39.86
-25.87
-12.38
-0.27
9.89
17.68
22.74
24.85
24.02
20.63
15.53
9.84
4.73
1.13
-0.55
-0.45
0.88
2.67
4.27
5.38
6.02
6.41
6.76
7.04
6.99
6.28
4.70
2.34
-0.40
-3.06
-5.26
-6.92
-8.29
-9.72
-11.55
-13.96
-16.99
-20.51
-24.26
-27.74
-30.21
-30.77
-28.58
-23.15
-14.65
-3.84
8.10
19.92
30.63
39.64
46.69
51.70
54.66
55.64
54.83
52.67
49.86
47.12
45.05
43.93
43.66
43.86
44.16
44.24
44.04
43.62
43.05
42.30
41.20
39.47
36.89
33.41
29.21
24.61
19.98
15.59
11.53
7.74
4.03
0.16
-4.05
-8.73
-13.82
-19.01
-23.67
-26.91
-27.81
-25.71
-20.47
-12.57
-2.96
7.16
16.69
24.80
31.02
35.15
37.20
37.34
35.91
33.34
30.20
27.03
24.32
22.32
21.08
20.45
20.17
20.03
19.88
19.65
19.29
18.73
17.77
16.16
13.73
10.49
6.72
2.88
-0.62
-3.52
-5.89
-8.00
-10.31
-13.19
-16.89
-21.39
-26.36
-31.10
-34.63
-35.88
-34.03
-28.78
-20.56
-10.43
0.21
10.07
18.24
24.32
28.26
30.20
30.39
29.12
26.78
23.87
20.95
18.46
16.69
15.66
15.24
15.14
15.12
14.97
14.60
13.99
13.11
11.89
10.20
7.89
4.85
1.12
-3.13
-7.57
-11.87
-15.80
-19.34
-22.76
-26.51
-31.05
-36.57
-42.86
-49.18
-54.52
-57.90
-58.75
-57.17
-54.00
-50.58
-48.41
-48.67
-51.86
-57.61
-64.72
-71.36
-75.49
-75.23
-69.37
-57.67
-41.08
-21.57
-1.74
15.78
29.07
37.30
40.91
41.21
39.82
38.07
36.67
35.79
35.23
34.72
34.06
33.15
31.93
30.38
28.50
26.36
24.08
21.81
19.67
17.73
16.08
14.87
14.38
15.00
17.13
20.98
26.51
33.31
40.68
47.72
53.58
57.65
59.67
59.75
58.24
55.60
52.24
48.52
44.66
40.80
36.98
33.16
29.24
25.13
20.79
16.35
12.05
8.18
4.98
2.49
0.51
-1.29
-3.23
-5.46
-7.95
-10.53
-13.00
-15.26
-17.41
-19.67
-22.32
-25.53
-29.22
-33.05
-36.41
-38.63
-39.12
-37.58
-34.13
-29.22
-23.52
-17.68
-12.21
-7.44
-3.61
-0.93
0.51
0.72
-0.02
-1.27
-2.49
-3.25
-3.35
-2.84
-1.98
-1.05
-0.29
0.20
0.39
0.35
0.15
-0.16
-0.57
-1.12
-1.90
-3.02
-4.52
-6.31
-8.22
-10.07
-11.73
-13.22
-14.64
-16.14
-17.89
-20.03
-22.57
-25.44
-28.28
-30.56
-31.62
-30.89
-28.14
-23.66
-18.14
-12.43
-7.26
-3.04
0.13
2.28
3.49
3.77
3.22
2.09
0.86
0.06
0.10
1.08
2.75
4.68
6.47
7.88
8.94
9.79
10.57
11.28
11.79
11.86
11.32
10.08
8.23
5.95
3.51
1.12
-1.09
-3.11
-5.05
-7.06
-9.23
-11.60
-14.12
-16.61
-18.78
-20.25
-20.56
-19.38
-16.58
-12.38
-7.30
-2.01
2.92
7.18
10.70
13.55
15.81
17.43
18.36
18.59
18.29
17.73
17.22
16.94
16.86
16.81
16.53
15.86
14.75
13.30
11.81
10.52
9.58
8.96
8.38
7.49
5.92
3.50
0.31
-3.14
-6.17
-8.25
-9.19
-9.23
-8.91
-8.85
-9.54
-11.13
-13.05
-14.39
-14.22
-11.97
-7.67
-1.84
4.65
10.85
16.05
20.46
24.64
29.16
34.11
38.97
43.01
45.69
46.93
47.04
46.95
47.24
47.89
48.47
48.72
49.18
50.92
54.75
56.44
51.83
38.45
17.70
-5.75
-26.77
-41.83
-50.04
-52.78
-52.66
-51.46
-49.91
-48.28
-45.98
-42.87
-39.25
-35.83
-33.23
-31.82
-31.21
-30.90
-30.66
-30.75
-32.05
-34.13
-36.58
-38.50
-38.55
-35.03
-26.56
-12.66
5.92
27.10
47.96
65.27
76.42
80.02
76.44
67.40
55.40
42.87
31.46
21.96
14.33
8.35
3.99
1.54
1.25
2.99
6.00
8.97
10.62
10.05
7.24
2.88
-1.97
-6.41
-10.03
-12.94
-15.59
-18.39
-21.54
-24.93
-28.32
-31.64
-35.14
-39.28
-44.53
-51.03
-58.32
-65.44
-71.17
-74.51
-75.06
-73.21
-69.92
-66.28
-63.09
-60.59
-58.57
-56.65
-54.44
-51.71
-48.18
-43.41
-36.70
-27.32
-14.81
0.75
18.57
37.36
55.59
71.83
84.93
94.15
99.20
100.18
97.49
91.80
83.88
74.52
64.38
53.97
43.62
33.52
23.68
14.02
4.44
-5.21
-15.02
-25.10
-35.57
-46.53
-57.95
-69.45
-80.21
-89.00
-94.54
-95.97
-93.14
-86.84
-78.46
-69.57
-61.46
-54.81
-49.71
-45.84
-42.79
-40.18
-37.80
-35.57
-33.45
-31.41
-29.44
-27.51
-25.61
-23.71
-21.72
-19.53
-16.98
-13.99
-10.59
-7.09
-3.95
-1.65
-0.52
-0.62
-1.77
-3.70
-6.20
-9.16
-12.57
-16.39
-20.50
-24.72
-28.92
-33.06
-37.18
-41.34
-45.46
-49.36
-52.81
-55.54
-57.29
-57.73
-56.43
-52.94
-47.00
-38.73
-28.73
-17.96
-7.39
2.18
10.33
16.86
21.69
24.73
26.01
25.80
24.67
23.42
22.79
23.21
24.62
26.69
29.02
31.42
33.96
36.89
40.39
44.38
48.54
52.28
54.95
55.93
54.83
51.53
46.34
39.86
32.85
26.00
19.66
13.74
7.82
1.35
-6.07
-14.56
-23.96
-33.93
-43.98
-53.51
-61.74
-67.90
-71.36
-71.94
-69.96
-65.96
-60.29
-52.73
-42.55
-29.01
-12.07
7.15
26.55
43.72
56.83
65.20
69.34
70.42
69.65
67.88
65.57
63.04
60.64
58.83
57.90
57.86
58.35
58.76
58.51
57.21
54.78
51.42
47.47
43.36
39.49
36.17
33.56
31.56
29.92
28.28
26.33
23.95
21.18
18.22
15.38
12.99
11.48
11.31
12.84
16.24
21.32
27.47
33.86
39.65
44.21
47.24
48.74
48.88
47.89
46.07
43.71
41.19
38.86
36.94
35.47
34.37
33.47
32.74
32.31
32.33
32.88
33.75
34.53
34.66
33.73
31.62
28.50
24.85
21.25
18.36
16.83
17.13
19.39
23.12
27.28
30.45
31.45
29.76
25.92
21.38
18.02
17.55
21.02
28.60
39.65
52.91
66.74
79.38
89.15
94.73
95.44
91.33
83.24
72.46
60.43
48.39
37.13
27.00
18.04
10.06
2.82
-3.95
-10.59
-17.33
-24.31
-31.39
-38.25
-44.48
-49.80
-54.23
-58.12
-61.99
-66.34
-71.44
-77.26
-83.47
-89.60
-95.09
-99.38
-101.94
-102.40
-100.59
-96.67
-91.09
-84.50
-77.57
-70.86
-64.70
-59.25
-54.52
-50.41
-46.76
-43.30
-39.63
-35.28
-29.79
-22.76
-14.07
-3.84
7.45
19.18
30.61
41.15
50.38
58.08
64.18
68.64
71.48
72.85
73.01
72.34
71.22
69.84
68.10
65.71
62.32
57.72
52.00
45.52
38.85
32.57
27.16
22.86
19.63
17.16
14.92
12.41
9.21
5.12
0.17
-5.46
-11.53
-17.72
-23.66
-28.97
-33.34
-36.70
-39.25
-41.44
-43.79
-46.57
-49.74
-52.98
-55.90
-58.24
-60.06
-61.55
-62.93
-64.25
-65.42
-66.32
-66.99
-67.67
-68.72
-70.47
-73.06
-76.37
-80.15
-84.04
-87.66
-90.54
-92.25
-92.38
-90.76
-87.50
-82.96
-77.66
-72.08
-66.61
-61.48
-56.86
-52.85
-49.47
-46.56
-43.85
-41.05
-38.00
-34.79
-31.68
-28.95
-26.60
-24.33
-21.67
-18.20
-13.90
-9.13
-4.52
-0.67
2.19
4.18
5.71
7.16
8.69
10.10
10.95
10.70
8.88
5.33
0.34
-5.30
-10.33
-13.37
-13.33
-9.87
-3.57
4.22
11.89
18.07
21.99
23.54
23.15
21.53
19.47
17.72
16.91
17.48
19.56
22.90
27.00
31.20
34.94
37.80
39.64
40.47
40.36
39.43
37.79
35.64
33.24
30.88
28.76
26.87
24.97
22.69
19.67
15.74
10.96
5.51
-0.42
-6.76
-13.49
-20.43
-27.05
-32.53
-35.91
-36.47
-34.03
-29.09
-22.65
-15.96
-10.07
-5.68
-3.01
-1.92
-2.16
-3.36
-5.09
-6.86
-8.24
-8.89
-8.66
-7.67
-6.21
-4.76
-3.74
-3.28
-3.26
-3.30
-2.98
-1.99
-0.28
1.91
3.97
5.39
6.09
6.46
7.23
9.06
12.20
16.44
21.08
24.94
27.17
27.76
27.51
27.54
28.82
31.94
37.13
44.06
51.32
57.44
61.66
64.19
65.75
67.16
68.75
70.86
73.23
74.25
72.36
67.44
60.76
53.79
47.28
41.04
34.52
26.55
14.67
-2.98
-26.67
-55.15
-86.52
-118.84
-149.88
-176.80
-188.02
-176.67
-145.54
-105.31
-66.53
-34.66
-10.79
4.56
14.18
19.18
18.51
11.72
0.30
-12.70
-23.28
-29.23
-30.22
-26.86
-20.60
-13.63
-7.39
-1.95
3.56
9.94
17.08
24.35
31.22
37.01
40.73
41.82
40.52
37.77
34.66
31.86
29.76
28.63
28.44
28.70
28.90
28.74
28.19
27.23
25.72
23.52
20.68
17.36
13.75
10.15
6.83
3.94
1.41
-1.07
-3.85
-7.16
-11.01
-15.24
-19.59
-23.84
-27.80
-31.39
-34.63
-37.68
-40.92
-44.86
-49.93
-56.15
-62.87
-68.82
-72.42
-72.29
-67.76
-59.14
-47.56
-34.62
-21.88
-10.45
-0.88
6.74
12.56
16.86
19.92
22.05
23.67
25.16
26.84
28.83
30.97
32.98
34.55
35.52
35.92
35.91
35.56
34.76
33.23
30.64
26.86
22.05
16.66
11.26
6.37
2.21
-1.24
-4.26
-7.24
-10.52
-14.29
-18.51
-22.97
-27.33
-31.32
-34.82
-37.93
-41.04
-44.60
-49.00
-54.23
-59.80
-64.68
-67.53
-67.03
-62.31
-53.22
-40.34
-24.85
-8.18
8.36
23.79
37.49
49.12
58.46
65.41
69.99
72.46
73.30
73.24
72.95
72.92
73.30
73.86
74.21
73.97
72.97
71.17
68.71
65.70
62.23
58.36
54.16
49.75
45.26
40.68
35.91
30.76
25.09
18.99
12.75
6.79
1.49
-3.08
-7.10
-10.97
-15.14
-19.92
-25.41
-31.40
-37.48
-42.93
-46.90
-48.44
-46.85
-41.81
-33.61
-23.13
-11.57
-0.18
10.02
18.37
24.53
28.44
30.17
29.96
28.25
25.63
22.80
20.44
19.03
18.74
19.42
20.71
22.19
23.51
24.46
24.98
25.06
24.71
23.88
22.54
20.72
18.47
15.88
13.00
9.83
6.36
2.58
-1.43
-5.53
-9.60
-13.62
-17.74
-22.15
-26.95
-31.87
-36.14
-38.62
-38.08
-33.65
-25.14
-13.12
1.35
17.02
32.86
48.08
62.13
74.53
84.85
92.83
98.51
102.26
104.70
106.41
107.68
108.46
108.34
106.81
103.47
98.24
91.43
83.60
75.40
67.28
59.45
51.76
43.95
35.81
27.28
18.47
9.54
0.65
-8.03
-16.25
-23.66
-29.92
-34.90
-38.85
-42.42
-46.33
-51.02
-56.28
-61.28
-64.83
-65.85
-63.84
-59.03
-52.21
-44.40
-36.59
-29.42
-23.25
-18.18
-14.24
-11.42
-9.70
-8.93
-8.88
-9.23
-9.66
-10.00
-10.24
-10.51
-10.98
-11.73
-12.67
-13.60
-14.34
-14.78
-14.98
-15.12
-15.39
-15.90
-16.67
-17.65
-18.80
-20.13
-21.66
-23.38
-25.22
-27.11
-28.97
-30.87
-32.95
-35.31
-37.80
-39.97
-41.11
-40.53
-37.86
-33.24
-27.27
-20.79
-14.62
-9.26
-4.98
-1.83
0.24
1.32
1.56
1.20
0.51
-0.24
-0.90
-1.42
-1.81
-2.05
-2.10
-1.90
-1.47
-0.97
-0.68
-0.88
-1.74
-3.21
-5.05
-6.95
-8.66
-10.06
-11.20
-12.17
-13.06
-13.95
-14.94
-16.17
-17.82
-19.93
-22.30
-24.33
-25.30
-24.56
-21.85
-17.45
-12.02
-6.38
-1.21
3.08
6.31
8.44
9.51
9.58
8.82
7.52
6.04
4.75
3.92
3.66
3.86
4.32
4.75
4.89
4.58
3.80
2.65
1.30
-0.07
-1.34
-2.47
-3.47
-4.40
-5.30
-6.19
-7.04
-7.82
-8.53
-9.25
-10.14
-11.39
-13.12
-15.20
-17.20
-18.50
-18.44
-16.66
-13.22
-8.57
-3.45
1.42
5.49
8.54
10.58
11.70
12.01
11.54
10.33
8.48
6.25
3.94
1.89
0.31
-0.81
-1.73
-2.78
-4.26
-6.31
-8.92
-11.92
-15.12
-18.36
-21.56
-24.63
-27.45
-29.94
-32.04
-33.79
-35.34
-36.90
-38.66
-40.74
-43.16
-45.72
-48.05
-49.65
-49.90
-48.32
-44.64
-38.92
-31.56
-23.19
-14.53
-6.29
0.98
6.93
11.34
14.23
15.75
16.22
16.02
15.57
15.15
14.94
14.99
15.21
15.50
15.75
15.88
15.85
15.62
15.13
14.27
13.00
11.30
9.28
7.08
4.88
2.77
0.78
-1.16
-3.18
-5.48
-8.33
-11.95
-16.29
-20.90
-24.89
-27.09
-26.40
-22.29
-15.01
-5.55
4.69
14.31
22.40
28.49
32.58
34.82
35.39
34.48
32.33
29.35
26.06
22.98
20.52
18.81
17.77
17.21
16.94
16.84
16.89
17.09
17.38
17.61
17.56
17.04
15.93
14.26
12.14
9.74
7.15
4.29
0.91
-3.29
-8.60
-15.09
-22.48
-30.14
-37.13
-42.42
-45.12
-44.75
-41.32
-35.43
-28.03
-20.18
-12.82
-6.58
-1.86
1.13
2.30
1.65
-0.59
-3.99
-7.95
-11.84
-15.10
-17.34
-18.31
-17.88
-16.11
-13.30
-10.00
-6.99
-5.00
-4.45
-5.37
-7.41
-10.05
-12.89
-15.76
-18.68
-21.77
-25.09
-28.74
-32.80
-37.30
-42.06
-46.42
-49.22
-49.05
-44.74
-35.92
-23.32
-8.60
6.19
19.30
29.72
37.30
42.44
45.71
47.52
48.00
47.16
45.07
41.99
38.44
35.09
32.60
31.34
31.21
31.69
31.91
30.97
28.29
23.78
17.79
10.98
3.97
-2.84
-9.23
-15.11
-20.57
-26.20
-33.34
-43.83
-59.28
-79.88
-103.78
-127.29
-146.09
-156.87
-158.55
-152.32
-140.72
-126.21
-110.19
-92.99
-74.49
-54.93
-35.31
-17.07
-1.50
10.81
20.07
26.97
32.29
36.52
39.78
41.94
42.89
42.67
41.52
39.73
37.52
34.85
31.52
27.21
21.79
15.38
8.45
1.60
-4.66
-10.13
-15.06
-19.97
-25.32
-31.06
-36.39
-39.87
-39.85
-35.11
-25.42
-11.65
4.42
20.71
35.41
47.43
56.45
62.78
67.05
69.89
71.75
72.93
73.61
73.91
73.99
73.95
73.77
73.27
72.15
70.10
66.91
62.54
57.05
50.52
42.95
34.39
24.93
14.85
4.59
-5.46
-15.13
-24.56
-34.22
-44.66
-56.23
-68.81
-81.65
-93.40
-102.33
-106.72
-105.29
-97.69
-84.61
-67.65
-48.90
-30.41
-13.70
0.37
11.58
20.08
26.20
30.31
32.78
34.04
34.57
34.82
35.14
35.69
36.42
37.16
37.69
37.92
37.81
37.43
36.81
35.94
34.74
33.20
31.31
29.14
26.78
24.29
21.66
18.79
15.48
11.45
6.42
0.23
-6.90
-14.22
-20.45
-24.05
-23.66
-18.65
-9.36
2.91
16.37
29.20
40.07
48.25
53.61
56.37
56.88
55.59
53.01
49.66
46.11
42.81
39.99
37.70
35.85
34.29
32.89
31.59
30.33
29.13
28.00
26.91
25.84
24.69
23.28
21.46
19.18
16.54
13.78
11.23
9.06
7.26
5.57
3.60
1.09
-1.86
-4.71
-6.52
-6.21
-3.00
3.32
12.25
22.68
33.31
42.96
50.88
56.76
60.60
62.44
62.31
60.21
56.28
50.88
44.63
38.27
32.40
27.39
23.22
19.61
16.17
12.56
8.55
4.04
-0.98
-6.43
-12.17
-17.97
-23.56
-28.68
-33.16
-37.00
-40.34
-43.44
-46.69
-50.43
-54.76
-59.43
-63.75
-66.64
-66.93
-63.78
-56.96
-46.97
-34.88
-22.01
-9.55
1.57
10.75
17.60
21.92
23.72
23.25
20.98
17.51
13.39
9.02
4.62
0.34
-3.67
-7.14
-9.78
-11.35
-11.77
-11.14
-9.71
-7.75
-5.50
-3.11
-0.66
1.81
4.23
6.47
8.29
9.42
9.55
8.47
6.23
3.20
0.13
-2.02
-2.27
-0.00
4.93
12.07
20.55
29.26
37.11
43.27
47.26
49.01
48.81
47.17
44.66
41.80
38.85
35.90
32.87
29.69
26.33
22.87
19.40
16.01
12.76
9.61
6.47
3.22
-0.25
-3.98
-7.95
-12.07
-16.24
-20.40
-24.56
-28.76
-33.04
-37.42
-41.85
-46.19
-50.16
-53.29
-55.00
-54.69
-51.92
-46.60
-39.09
-30.15
-20.72
-11.69
-3.74
2.80
7.88
11.69
14.49
16.50
17.88
18.65
18.73
18.08
16.74
14.87
12.76
10.70
8.96
7.66
6.74
6.05
5.40
4.63
3.65
2.42
0.94
-0.78
-2.73
-4.92
-7.38
-10.20
-13.44
-17.11
-20.96
-24.50
-27.00
-27.67
-25.96
-21.71
-15.31
-7.59
0.42
7.77
13.82
18.37
21.58
23.78
25.29
26.19
26.37
25.64
23.94
21.52
18.87
16.52
14.81
13.71
12.94
12.08
10.82
9.03
6.76
4.08
1.08
-2.20
-5.64
-9.08
-12.27
-15.02
-17.29
-19.20
-21.02
-23.04
-25.42
-28.14
-30.94
-33.33
-34.73
-34.58
-32.51
-28.46
-22.76
-16.04
-9.17
-2.96
1.97
5.45
7.72
9.25
10.49
11.64
12.57
12.92
12.33
10.60
7.79
4.17
0.07
-4.20
-8.37
-12.24
-15.66
-18.60
-21.16
-23.56
-26.00
-28.54
-30.98
-33.05
-34.55
-35.53
-36.33
-37.46
-39.34
-42.14
-45.61
-49.22
-52.27
-54.07
-54.07
-51.95
-47.72
-41.74
-34.65
-27.27
-20.38
-14.45
-9.61
-5.66
-2.25
0.82
3.50
5.56
6.74
6.96
6.40
5.42
4.38
3.43
2.45
1.19
-0.53
-2.58
-4.48
-5.47
-4.83
-2.08
2.84
9.58
17.56
26.03
34.20
41.30
46.63
49.58
49.85
47.47
42.91
36.98
30.71
25.05
20.72
18.09
17.15
17.64
19.21
21.46
24.19
27.26
30.68
34.46
38.55
42.80
46.98
50.80
54.00
56.45
58.24
59.61
60.91
62.37
64.03
65.66
66.85
67.15
66.18
63.68
59.44
53.29
45.10
34.92
23.04
10.05
-3.34
-16.53
-29.30
-41.83
-54.57
-67.83
-81.44
-94.64
-106.15
-114.61
-118.96
-118.75
-114.19
-105.99
-95.24
-83.12
-70.80
-59.29
-49.33
-41.32
-35.27
-30.87
-27.68
-25.24
-23.16
-21.10
-18.76
-15.79
-11.84
-6.65
-0.18
7.37
15.47
23.43
30.47
35.89
39.20
40.19
38.88
35.47
30.22
23.49
15.66
7.13
-1.71
-10.57
-19.33
-27.98
-36.44
-44.32
-50.80
-54.74
-55.00
-50.88
-42.58
-31.20
-18.44
-6.09
4.52
12.84
19.03
23.64
27.29
30.40
33.20
35.76
38.02
39.81
40.73
40.25
37.82
33.25
26.82
19.33
11.84
5.26
0.05
-3.84
-6.89
-9.72
-12.83
-16.46
-20.58
-25.06
-29.79
-34.77
-40.11
-45.78
-51.48
-56.44
-59.55
-59.64
-55.86
-47.99
-36.52
-22.43
-6.88
9.08
24.67
39.26
52.24
62.95
70.70
74.98
75.68
73.09
67.91
60.97
53.07
44.75
36.32
27.81
19.19
10.46
1.75
-6.61
-14.21
-20.64
-25.60
-29.05
-31.15
-32.26
-32.81
-33.20
-33.65
-34.08
-34.08
-32.97
-29.97
-24.52
-16.50
-6.41
4.74
15.65
25.04
31.90
35.71
36.42
34.37
30.18
24.54
18.10
11.42
4.93
-0.96
-5.90
-9.65
-12.15
-13.57
-14.30
-14.81
-15.49
-16.51
-17.83
-19.26
-20.61
-21.78
-22.72
-23.44
-23.98
-24.33
-24.40
-24.02
-22.95
-20.91
-17.64
-12.97
-6.85
0.58
9.02
18.03
26.99
35.24
42.13
47.16
50.05
50.76
49.50
46.52
42.18
36.82
30.89
24.88
19.35
14.77
11.36
9.10
7.71
6.83
6.21
5.81
5.75
6.21
7.29
8.83
10.40
11.35
10.93
8.50
3.73
-3.32
-12.08
-21.64
-30.90
-38.85
-44.77
-48.29
-49.49
-48.75
-46.66
-43.77
-40.46
-36.82
-32.73
-28.08
-22.86
-17.33
-11.90
-6.91
-2.27
2.65
8.98
17.86
29.94
44.89
61.39
77.39
90.78
100.07
104.79
105.56
103.64
100.48
97.12
94.01
90.99
87.58
83.27
77.72
70.89
62.97
54.30
45.27
36.32
27.90
20.48
14.46
10.14
7.51
6.25
5.73
5.15
3.78
1.10
-3.08
-8.64
-15.21
-22.27
-29.26
-35.68
-41.14
-45.49
-48.82
-51.38
-53.51
-55.46
-57.36
-59.17
-60.74
-61.86
-62.37
-62.16
-61.25
-59.90
-58.55
-57.73
-57.87
-59.13
-61.24
-63.63
-65.63
-66.67
-66.48
-65.08
-62.64
-59.37
-55.39
-50.78
-45.60
-40.02
-34.27
-28.67
-23.47
-18.74
-14.37
-10.13
-5.76
-1.14
3.67
8.45
12.93
16.86
20.06
22.41
23.82
24.20
23.50
21.80
19.30
16.28
13.04
9.77
6.55
3.36
0.14
-3.06
-6.02
-8.31
-9.34
-8.63
-6.02
-1.80
3.26
8.30
12.67
16.26
19.40
22.64
26.27
30.06
33.32
35.25
35.36
33.69
30.79
27.36
23.90
20.53
17.00
12.91
7.99
2.21
-4.13
-10.60
-16.66
-21.79
-25.62
-27.98
-29.01
-29.23
-29.38
-30.23
-32.36
-35.91
-40.55
-45.49
-49.69
-51.97
-51.26
-46.74
-38.06
-25.44
-9.69
7.95
26.08
43.41
58.97
72.16
82.69
90.59
96.05
99.43
101.03
100.96
99.03
94.81
87.96
78.45
66.83
54.03
41.13
28.92
17.73
7.43
-2.27
-11.59
-20.54
-28.98
-36.78
-43.96
-50.73
-57.30
-63.75
-69.95
-75.54
-80.09
-83.22
-84.75
-84.70
-83.25
-80.65
-77.21
-73.26
-69.15
-65.20
-61.65
-58.66
-56.25
-54.34
-52.82
-51.52
-50.26
-48.77
-46.78
-44.06
-40.52
-36.18
-31.21
-25.84
-20.27
-14.61
-8.92
-3.22
2.41
7.76
12.52
16.23
18.48
18.97
17.65
14.80
11.07
7.42
4.96
4.71
7.27
12.66
20.21
28.73
36.89
43.64
48.45
51.38
52.81
53.15
52.62
51.22
48.92
45.88
42.53
39.48
37.34
36.42
36.72
37.98
39.78
41.63
43.15
44.05
44.16
43.43
41.88
39.59
36.61
32.93
28.32
22.54
15.50
7.40
-1.30
-9.86
-17.38
-22.88
-25.46
-24.67
-20.53
-13.60
-4.87
4.45
13.39
21.53
29.13
36.94
45.54
55.14
65.60
76.35
86.74
96.20
103.95
108.99
111.64
112.07
109.84
104.94
97.79
89.01
79.14
68.38
56.65
43.83
29.85
15.00
0.04
-14.24
-27.31
-38.93
-49.05
-57.51
-64.08
-68.71
-71.68
-73.55
-75.07
-76.87
-79.14
-81.65
-83.90
-85.46
-86.31
-86.80
-87.39
-88.47
-90.26
-92.69
-95.54
-98.46
-101.09
-103.12
-104.37
-104.81
-104.54
-103.89
-103.21
-102.74
-102.51
-102.16
-101.09
-98.65
-94.43
-88.62
-82.16
-76.42
-72.70
-71.56
-72.30
-72.89
-70.61
-62.98
-48.69
-28.18
-3.49
22.48
46.96
68.02
84.92
97.82
107.31
113.94
118.05
119.85
119.60
117.63
114.22
109.49
103.31
95.40
85.60
74.07
61.33
48.09
34.99
22.41
10.37
-1.36
-13.13
-25.24
-37.82
-50.90
-64.32
-77.81
-90.87
-102.74
-112.41
-118.82
-121.13
-118.94
-112.51
-102.62
-90.40
-77.00
-63.29
-49.85
-36.94
-24.78
-13.65
-4.00
3.66
8.93
11.76
12.55
12.08
11.31
11.04
11.63
12.95
14.51
15.71
16.15
15.78
14.85
13.77
12.90
12.34
11.97
11.45
10.39
8.42
5.24
0.72
-5.00
-11.42
-17.56
-22.06
-23.43
-20.48
-12.73
-0.65
14.48
30.83
46.56
60.20
70.82
78.10
82.14
83.36
82.39
79.97
76.90
73.92
71.57
70.15
69.63
69.76
70.12
70.21
69.58
67.88
65.03
61.18
56.67
51.87
47.02
42.14
37.07
31.50
25.17
17.84
9.45
0.16
-9.47
-18.49
-25.63
-29.61
-29.57
-25.36
-17.64
-7.72
2.92
12.88
21.17
27.23
30.87
32.09
31.08
28.21
24.09
19.61
15.85
13.80
14.08
16.62
20.77
25.67
30.75
36.11
42.36
50.00
58.78
67.34
73.52
75.15
70.93
60.83
46.04
28.39
9.82
-7.92
-23.26
-34.75
-41.14
-41.64
-36.31
-26.30
-13.66
-0.83
10.07
17.78
22.10
23.73
23.76
23.16
22.40
21.50
20.24
18.48
16.35
14.17
12.26
10.77
9.62
8.73
8.10
7.96
8.64
10.35
12.92
15.82
18.23
19.36
18.71
16.25
12.37
7.69
2.81
-1.95
-6.62
-11.40
-16.37
-21.24
-25.32
-27.79
-28.14
-26.56
-23.98
-21.81
-21.36
-23.33
-27.58
-33.27
-39.34
-44.87
-49.41
-52.94
-55.66
-57.75
-59.31
-60.30
-60.71
-60.68
-60.51
-60.60
-61.27
-62.63
-64.50
-66.62
-68.75
-70.85
-73.05
-75.43
-77.85
-79.78
-80.45
-79.15
-75.50
-69.66
-62.21
-53.86
-45.22
-36.68
-28.51
-21.07
-14.85
-10.32
-7.65
-6.60
-6.48
-6.50
-6.06
-4.86
-2.88
-0.13
3.50
8.20
14.00
20.56
27.07
32.44
35.67
36.08
33.49
28.02
20.04
9.99
-1.50
-13.51
-24.72
-33.61
-38.78
-39.38
-35.40
-27.69
-17.60
-6.57
4.35
14.60
24.09
32.92
41.07
48.36
54.47
59.12
62.19
63.86
64.53
64.68
64.75
65.00
65.45
65.89
65.92
65.03
62.73
58.66
52.72
45.13
36.31
26.67
16.51
5.92
-5.01
-15.91
-25.99
-33.98
-38.57
-38.87
-34.71
-26.77
-16.23
-4.36
7.78
19.42
29.95
38.78
45.43
49.64
51.54
51.64
50.64
49.03
46.96
44.19
40.28
34.94
28.17
20.32
11.95
3.59
-4.34
-11.59
-18.03
-23.63
-28.45
-32.73
-36.88
-41.33
-46.29
-51.46
-55.86
-58.06
-56.59
-50.49
-39.69
-25.04
-7.94
10.11
27.91
44.64
59.59
72.05
81.23
86.46
87.48
84.66
78.88
71.27
62.80
54.02
44.99
35.54
25.41
14.60
3.35
-7.91
-18.72
-28.77
-37.94
-46.24
-53.73
-60.42
-66.25
-71.06
-74.62
-76.58
-76.43
-73.62
-67.66
-58.41
-46.20
-31.86
-16.56
-1.57
11.92
22.95
30.75
34.82
35.02
31.71
25.70
18.15
10.23
2.77
-3.93
-10.09
-16.15
-22.45
-29.02
-35.51
-41.41
-46.21
-49.65
-51.77
-52.87
-53.41
-53.89
-54.73
-56.19
-58.22
-60.42
-62.03
-62.09
-59.71
-54.36
-46.04
-35.27
-22.93
-9.97
2.85
14.99
26.18
36.33
45.37
53.29
60.01
65.39
69.28
71.42
71.57
69.51
65.20
58.79
50.70
41.55
32.04
22.80
14.28
6.74
0.22
-5.38
-10.27
-14.71
-18.98
-23.19
-27.19
-30.43
-32.00
-30.87
-26.27
-17.97
-6.46
7.22
21.70
35.71
48.20
58.46
66.00
70.46
71.66
69.62
64.57
57.05
47.76
37.42
26.69
16.00
5.60
-4.43
-14.02
-23.01
-31.20
-38.34
-44.38
-49.51
-54.15
-58.81
-63.90
-69.53
-75.49
-81.20
-85.81
-88.31
-87.69
-83.24
-74.56
-61.80
-45.71
-27.53
-8.72
9.36
25.62
39.30
49.90
57.20
61.17
61.95
59.86
55.32
48.92
41.24
32.74
23.74
14.61
5.78
-2.35
-9.49
-15.53
-20.26
-23.65
-25.90
-27.65
-29.22
-30.75
-32.16
-33.25
-33.62
-32.09
-27.46
-19.09
-7.66
6.17
21.51
37.34
52.32
65.05
75.21
82.56
86.72
86.36
81.60
73.55
63.99
54.52
46.47
41.87
42.08
47.12
54.64
63.14
71.75
80.33
88.80
90.43
81.12
61.45
42.94
27.37
13.86
-0.71
-16.42
-32.28
-46.81
-57.64
-63.14
-63.18
-60.08
-55.25
-49.56
-43.29
-36.96
-31.13
-25.54
-19.93
-14.45
-10.43
-8.09
-6.99
-6.26
-5.36
-3.98
-1.66
1.60
5.01
6.76
5.79
1.85
-4.32
-11.63
-18.82
-24.68
-28.56
-30.55
-31.54
-32.11
-32.33
-31.66
-29.27
-24.30
-16.26
-5.36
7.27
19.82
30.46
37.89
41.56
41.66
38.82
33.71
26.87
18.67
9.45
-0.22
-9.58
-17.78
-24.22
-28.74
-31.67
-33.78
-35.88
-38.60
-42.05
-45.87
-49.23
-51.15
-50.68
-47.34
-41.28
-33.55
-25.95
-20.71
-19.78
-24.15
-33.36
-45.53
-57.81
-67.27
-71.63
-69.81
-61.93
-49.11
-33.03
-15.60
1.35
16.36
28.52
37.62
44.04
48.50
51.66
53.76
54.59
53.55
50.05
43.80
34.99
24.30
12.63
0.86
-10.40
-20.85
-30.44
-39.26
-47.33
-54.69
-61.34
-67.24
-72.18
-75.68
-76.94
-74.99
-69.08
-59.04
-45.47
-29.66
-13.14
2.66
16.72
28.43
37.32
43.01
45.14
43.57
38.63
31.24
22.78
14.77
8.43
4.38
2.50
2.14
2.36
2.30
1.32
-0.86
-4.18
-8.18
-12.26
-15.74
-18.26
-19.99
-21.66
-24.24
-28.45
-34.24
-40.63
-46.09
-49.11
-48.88
-45.48
-39.76
-32.84
-25.68
-18.91
-12.89
-7.84
-3.88
-0.95
1.41
3.96
7.59
13.05
20.56
29.82
40.01
50.02
58.58
64.42
66.42
63.80
56.32
44.47
29.38
12.58
-4.46
-20.67
-35.53
-48.93
-60.80
-70.76
-77.93
-81.04
-78.81
-70.36
-55.58
-35.27
-11.00
15.19
41.18
65.05
85.22
100.49
110.10
113.77
111.69
104.53
93.39
79.51
64.12
48.25
32.62
17.72
3.87
-8.68
-19.60
-28.47
-34.76
-37.97
-37.82
-34.42
-28.41
-20.90
-13.16
-6.30
-0.96
2.77
5.19
6.72
7.67
8.20
8.39
8.37
8.36
8.58
9.18
10.07
11.01
11.67
11.83
11.46
10.73
9.91
9.31
9.21
9.87
11.58
14.69
19.57
26.49
35.54
46.48
58.70
71.23
82.91
92.52
99.00
101.57
99.82
93.78
83.87
71.04
56.70
42.68
30.98
23.41
21.16
24.60
33.16
45.62
60.50
76.40
92.18
106.88
119.65
129.60
135.85
137.61
134.25
125.44
111.12
91.59
67.62
40.50
12.04
-15.76
-41.07
-62.68
-80.18
-93.85
-104.29
-112.03
-117.30
-120.06
-120.24
-117.90
-113.29
-106.69
-98.34
-88.36
-77.07
-65.18
-53.95
-44.79
-38.74
-35.90
-35.25
-35.04
-33.59
-30.05
-24.79
-19.14
-14.60
-12.17
-11.86
-12.95
-14.46
-15.79
-16.95
-18.40
-20.63
-23.81
-27.63
-31.48
-34.85
-37.55
-39.82
-42.11
-44.91
-48.54
-53.13
-58.66
-64.97
-71.77
-78.63
-85.02
-90.38
-94.20
-96.08
-95.70
-92.86
-87.43
-79.42
-69.10
-56.94
-43.64
-30.02
-16.93
-5.20
4.57
12.23
18.16
23.41
29.52
37.99
49.67
64.19
79.84
94.08
104.54
110.01
110.99
109.40
107.50
106.73
106.95
106.58
103.49
96.20
84.61
70.03
54.56
40.25
28.43
19.61
13.73
10.52
9.79
11.44
15.32
20.96
27.49
33.73
38.50
41.01
41.08
39.25
36.44
33.63
31.45
30.01
29.08
28.30
27.44
26.56
25.95
25.91
26.64
28.10
29.97
31.76
32.98
33.23
32.29
30.20
27.15
23.48
19.60
15.84
12.41
9.27
6.23
2.99
-0.68
-4.86
-9.39
-13.96
-18.24
-21.99
-25.12
-27.73
-30.00
-32.17
-34.48
-37.15
-40.30
-43.85
-47.49
-50.76
-53.18
-54.55
-54.89
-54.48
-53.72
-52.99
-52.75
-53.53
-56.05
-61.00
-68.72
-78.85
-90.12
-100.65
-108.43
-112.13
-111.54
-107.61
-101.92
-96.06
-91.02
-87.00
-83.62
-80.27
-76.45
-71.79
-66.08
-59.09
-50.69
-40.96
-30.42
-20.02
-10.73
-3.26
2.41
6.88
11.17
16.14
22.13
28.83
35.42
41.05
45.02
47.06
47.21
45.64
42.54
38.14
32.89
27.50
22.94
20.09
19.43
20.85
23.67
27.04
30.22
32.76
34.43
35.12
34.76
33.40
31.40
29.40
28.14
28.00
28.63
28.91
27.24
22.20
13.14
0.52
-14.26
-29.44
-43.47
-55.45
-65.19
-73.02
-79.44
-84.88
-89.50
-93.35
-96.40
-98.64
-100.01
-100.36
-99.32
-96.33
-90.78
-82.25
-70.67
-56.47
-40.64
-24.46
-9.32
3.64
13.85
21.29
26.39
29.77
31.94
33.14
33.33
32.34
30.11
26.73
22.49
17.72
12.77
7.86
3.13
-1.29
-5.33
-8.91
-12.01
-14.62
-16.76
-18.45
-19.83
-21.18
-22.97
-25.83
-30.26
-36.36
-43.58
-50.69
-56.02
-57.85
-54.88
-46.59
-33.39
-16.62
1.74
19.45
34.55
45.73
52.62
55.60
55.57
53.51
50.22
46.21
41.80
37.20
32.60
28.11
23.71
19.24
14.51
9.43
4.08
-1.31
-6.52
-11.46
-16.17
-20.89
-25.90
-31.48
-37.83
-45.08
-53.17
-61.78
-70.14
-77.03
-80.93
-80.43
-74.68
-63.73
-48.51
-30.51
-11.31
7.76
25.77
42.10
56.27
67.88
76.72
82.78
86.32
87.72
87.30
85.20
81.44
76.08
69.44
62.07
54.70
48.09
42.77
38.99
36.61
35.22
34.13
32.59
29.83
25.31
18.86
10.78
1.90
-6.62
-13.49
-17.63
-18.42
-15.83
-10.36
-2.90
5.46
13.68
20.96
26.77
30.84
33.12
33.70
32.81
30.84
28.30
25.79
23.89
22.96
23.11
24.14
25.70
27.41
28.97
30.17
30.87
30.85
29.86
27.64
24.06
19.14
13.09
6.10
-1.65
-10.04
-18.81
-27.36
-34.71
-39.64
-41.11
-38.72
-32.97
-25.18
-17.05
-10.11
-5.34
-3.02
-2.89
-4.41
-6.99
-10.01
-12.87
-15.04
-16.24
-16.61
-16.74
-17.45
-19.33
-22.43
-26.08
-29.19
-30.65
-29.83
-26.75
-22.09
-16.91
-12.33
-9.31
-8.32
-9.18
-11.08
-12.73
-12.76
-10.17
-4.69
3.25
12.64
22.29
31.16
38.45
43.67
46.48
46.75
44.60
40.48
35.26
30.16
26.48
25.31
27.28
32.34
39.85
48.82
58.16
66.94
74.53
80.53
84.64
86.60
86.04
82.57
75.90
65.98
53.24
38.62
23.44
9.14
-3.03
-12.28
-18.34
-21.35
-21.74
-20.08
-17.04
-13.37
-9.85
-7.16
-5.73
-5.58
-6.43
-7.79
-9.18
-10.30
-11.04
-11.44
-11.48
-11.03
-9.89
-7.90
-5.09
-1.85
1.24
3.51
4.45
3.86
1.84
-1.29
-5.07
-8.92
-12.06
-13.56
-12.50
-8.23
-0.76
9.12
19.99
30.20
38.40
43.80
46.25
46.02
43.54
39.32
33.97
28.36
23.51
20.38
19.54
20.93
23.93
27.64
31.25
34.27
36.51
37.94
38.47
37.88
35.96
32.67
28.36
23.60
18.93
14.63
10.50
6.06
0.73
-5.82
-13.55
-22.12
-31.00
-39.66
-47.62
-54.49
-59.96
-63.93
-66.63
-68.57
-70.49
-72.86
-75.60
-77.90
-78.58
-76.65
-71.91
-65.23
-58.22
-52.56
-49.24
-48.21
-48.52
-48.94
-48.62
-47.40
-45.74
-44.32
-43.67
-43.93
-44.93
-46.21
-47.10
-46.65
-43.76
-37.33
-26.77
-12.23
5.24
23.97
42.14
58.20
71.15
80.46
85.93
87.56
85.51
80.19
72.23
62.42
51.55
40.24
28.92
17.94
7.63
-1.60
-9.27
-14.97
-18.49
-19.98
-19.97
-19.27
-18.81
-19.43
-21.64
-25.50
-30.50
-35.78
-40.25
-42.98
-43.36
-41.18
-36.67
-30.30
-22.71
-14.60
-6.70
0.27
5.68
9.03
10.15
9.24
6.87
3.89
1.18
-0.57
-0.94
0.10
2.34
5.40
8.90
12.54
16.13
19.55
22.72
25.65
28.37
30.92
33.27
35.29
36.77
37.53
37.59
37.34
37.48
38.89
42.37
48.41
57.11
68.12
80.87
94.59
108.48
121.69
133.35
142.66
148.90
151.65
150.74
146.35
138.93
129.16
117.85
105.75
93.45
81.22
69.03
56.56
43.35
28.81
12.33
-6.61
-28.27
-52.50
-78.53
-104.92
-129.66
-150.51
-165.38
-172.76
-172.11
-164.03
-150.14
-132.87
-114.97
-98.95
-86.63
-78.88
-75.74
-76.67
-80.85
-87.32
-94.96
-102.41
-108.11
-110.62
-109.06
-103.46
-94.79
-84.56
-74.19
-64.46
-55.38
-46.43
-37.10
-27.32
-17.62
-8.86
-1.85
2.98
5.66
6.60
6.31
5.21
3.69
2.14
1.18
1.60
4.17
9.30
16.77
25.61
34.39
41.59
46.03
47.20
45.28
40.98
35.27
29.21
23.72
19.63
17.53
17.76
20.29
24.61
29.88
35.10
39.42
42.51
44.55
46.08
47.58
49.08
50.02
49.43
46.36
40.32
31.41
20.31
8.10
-3.96
-14.54
-22.32
-26.16
-25.38
-20.03
-10.98
0.25
11.89
22.38
30.68
36.29
39.14
39.42
37.44
33.65
28.57
22.88
17.23
12.11
7.71
3.87
0.09
-4.19
-9.37
-15.50
-22.23
-28.97
-35.13
-40.39
-44.77
-48.52
-51.94
-55.15
-57.95
-59.72
-59.52
-56.27
-48.98
-37.11
-20.86
-1.16
20.56
42.67
63.76
82.82
99.33
113.07
123.98
131.98
136.94
138.68
137.10
132.27
124.61
114.91
104.16
93.35
83.10
73.49
64.12
54.31
43.50
31.47
18.37
4.57
-9.60
-23.91
-38.17
-51.94
-64.34
-74.04
-79.71
-80.50
-76.49
-68.76
-58.98
-48.71
-38.89
-29.59
-20.40
-10.94
-1.35
7.62
14.95
19.87
22.30
22.80
22.23
21.30
20.23
18.80
16.59
13.34
9.10
4.09
-1.44
-7.37
-13.74
-20.53
-27.57
-34.55
-41.19
-47.43
-53.39
-59.35
-65.39
-71.25
-76.33
-79.82
-81.08
-79.84
-76.32
-71.15
-65.16
-59.05
-53.25
-47.88
-42.86
-38.02
-33.26
-28.56
-24.01
-19.82
-16.23
-13.54
-12.00
-11.72
-12.62
-14.38
-16.54
-18.66
-20.44
-21.75
-22.65
-23.32
-24.01
-24.97
-26.50
-28.91
-32.41
-36.97
-42.32
-47.85
-52.76
-56.19
-57.45
-56.19
-52.52
-46.97
-40.38
-33.64
-27.44
-22.06
-17.35
-12.93
-8.48
-4.00
0.18
3.46
5.34
5.66
4.71
3.14
1.71
1.02
1.36
2.70
4.81
7.41
10.30
13.41
16.75
20.27
23.78
26.86
28.88
29.21
27.33
22.97
16.24
7.66
-1.84
-10.87
-17.79
-21.06
-19.66
-13.46
-3.36
8.99
21.66
33.05
42.27
49.24
54.31
57.91
60.19
60.93
59.72
56.28
50.72
43.61
35.84
28.29
21.59
15.89
10.95
6.29
1.49
-3.61
-8.89
-14.06
-18.83
-22.99
-26.51
-29.42
-31.77
-33.66
-35.22
-36.67
-38.19
-39.78
-41.06
-41.31
-39.70
-35.63
-29.06
-20.61
-11.30
-2.24
5.76
12.28
17.24
20.68
22.60
22.91
21.58
18.73
14.73
10.12
5.48
1.22
-2.50
-5.75
-8.73
-11.62
-14.53
-17.50
-20.51
-23.54
-26.53
-29.25
-31.30
-32.12
-31.18
-28.18
-23.28
-17.09
-10.49
-4.26
1.17
5.93
10.60
15.80
21.90
28.77
35.78
42.07
46.85
49.65
50.35
49.09
46.13
41.77
36.35
30.34
24.44
19.52
16.49
16.06
18.53
23.62
30.47
37.83
44.32
48.83
50.68
49.79
46.57
41.74
36.17
30.63
25.73
21.80
18.92
16.93
15.61
14.86
14.81
15.91
18.74
23.77
31.09
40.26
50.34
60.20
68.75
75.27
79.39
81.03
80.22
77.00
71.37
63.46
53.62
42.46
30.73
19.14
8.09
-2.27
-12.06
-21.46
-30.55
-39.25
-47.36
-54.67
-61.10
-66.71
-71.77
-76.76
-82.27
-88.89
-97.03
-106.74
-117.53
-128.31
-137.59
-143.60
-144.80
-140.17
-129.48
-113.42
-93.43
-71.40
-49.23
-28.57
-10.59
3.97
14.77
21.75
25.10
25.33
23.19
19.64
15.67
12.07
9.34
7.57
6.54
5.88
5.24
4.39
3.36
2.30
1.51
1.18
1.35
1.79
1.98
1.31
-0.72
-4.25
-8.80
-13.36
-16.58
-17.14
-14.13
-7.28
3.06
16.10
30.86
46.30
61.35
74.89
85.71
92.70
95.09
92.81
86.54
77.65
67.86
58.84
51.86
47.63
46.26
47.44
50.61
55.09
60.20
65.33
69.89
73.35
75.22
75.05
72.44
67.02
58.55
47.07
33.11
17.78
2.82
-9.78
-18.29
-21.89
-20.95
-16.85
-11.49
-6.52
-2.93
-0.97
-0.47
-1.22
-3.25
-6.73
-11.83
-18.50
-26.35
-34.79
-43.04
-50.34
-56.13
-60.18
-62.77
-64.65
-66.84
-70.30
-75.56
-82.52
-90.58
-98.90
-106.76
-113.74
-119.76
-124.92
-129.27
-132.66
-134.61
-134.33
-130.94
-123.70
-112.37
-97.45
-80.15
-62.15
-45.10
-30.24
-18.18
-8.99
-2.35
2.12
4.81
6.21
6.87
7.41
8.35
9.87
11.76
13.58
14.89
15.50
15.59
15.54
15.74
16.31
17.03
17.39
16.74
14.57
10.70
5.48
-0.10
-4.57
-6.28
-3.83
3.43
15.17
30.15
46.56
62.52
76.46
87.40
94.90
98.95
99.83
98.00
94.09
88.85
83.10
77.49
72.39
67.70
62.92
57.32
50.22
41.30
30.77
19.37
8.15
-1.90
-10.22
-16.90
-22.62
-28.38
-34.98
-42.66
-50.83
-58.28
-63.52
-65.31
-63.05
-56.86
-47.62
-36.55
-25.00
-14.16
-4.90
2.30
7.28
10.25
11.62
11.98
11.97
12.10
12.68
13.73
15.01
16.13
16.78
16.88
16.60
16.34
16.54
17.43
18.94
20.65
21.88
21.93
20.27
16.78
11.91
6.67
2.41
0.43
1.56
5.93
12.86
21.11
29.17
35.71
39.76
40.88
39.15
35.03
29.23
22.56
15.78
9.52
4.19
-0.05
-3.23
-5.57
-7.34
-8.85
-10.22
-11.40
-12.19
-12.41
-12.05
-11.47
-11.26
-12.19
-14.90
-19.71
-26.50
-34.69
-43.29
-51.02
-56.56
-58.76
-56.97
-51.17
-42.01
-30.61
-18.32
-6.38
4.24
12.86
19.12
22.84
24.08
23.18
20.74
17.49
14.18
11.32
9.09
7.37
5.88
4.36
2.76
1.22
-0.04
-0.78
-0.99
-0.91
-1.04
-2.04
-4.44
-8.40
-13.49
-18.66
-22.48
-23.62
-21.29
-15.57
-7.33
2.05
11.18
18.98
24.89
28.79
30.80
31.14
30.08
27.97
25.24
22.45
20.12
18.62
18.00
18.02
18.25
18.28
17.85
16.95
15.73
14.33
12.66
10.37
6.87
1.56
-5.92
-15.42
-26.09
-36.47
-44.69
-48.96
-48.11
-41.95
-31.36
-17.97
-3.74
9.66
21.09
29.97
36.16
39.77
41.06
40.42
38.31
35.23
31.56
27.53
23.26
18.89
14.74
11.32
9.17
8.68
9.82
12.10
14.65
16.50
16.76
14.89
10.79
4.86
-2.02
-8.59
-13.35
-14.94
-12.44
-5.68
4.66
17.22
30.34
42.57
52.98
61.23
67.46
71.96
74.95
76.46
76.37
74.51
70.81
65.39
58.66
51.26
43.99
37.63
32.79
29.75
28.38
28.08
27.90
26.71
23.41
17.23
7.99
-3.80
-16.94
-29.85
-40.93
-48.96
-53.35
-54.11
-51.78
-47.16
-41.22
-35.01
-29.55
-25.73
-24.12
-24.88
-27.65
-31.75
-36.35
-40.74
-44.49
-47.43
-49.57
-50.97
-51.63
-51.51
-50.60
-48.98
-46.85
-44.53
-42.37
-40.72
-39.87
-40.09
-41.53
-44.23
-47.98
-52.27
-56.25
-58.82
-58.92
-55.77
-49.19
-39.60
-27.96
-15.42
-3.11
8.13
17.75
25.49
31.26
35.06
36.97
37.12
35.82
33.46
30.46
27.19
23.82
20.28
16.39
12.02
7.18
2.17
-2.56
-6.59
-9.74
-12.11
-14.13
-16.35
-19.22
-22.91
-27.14
-31.20
-34.02
-34.46
-31.56
-24.96
-15.01
-2.76
10.33
22.82
33.58
42.04
48.10
52.03
54.23
55.14
55.20
54.91
54.76
55.22
56.59
58.91
61.98
65.39
68.61
71.07
72.21
71.47
68.40
62.65
54.16
43.13
30.12
15.93
1.53
-12.02
-23.67
-32.44
-37.54
-38.59
-35.72
-29.60
-21.34
-12.18
-3.29
4.46
10.52
14.62
16.71
16.90
15.44
12.67
8.92
4.44
-0.72
-6.65
-13.50
-21.28
-29.77
-38.54
-47.00
-54.58
-60.89
-65.75
-69.30
-71.94
-74.20
-76.60
-79.38
-82.29
-84.61
-85.28
-83.24
-77.82
-68.95
-57.18
-43.48
-28.94
-14.52
-0.91
11.44
22.29
31.52
39.03
44.75
48.63
50.68
51.01
49.83
47.40
43.93
39.52
34.22
28.12
21.45
14.60
8.00
1.93
-3.61
-8.88
-14.36
-20.46
-27.28
-34.51
-41.39
-46.88
-49.91
-49.65
-45.78
-38.58
-28.84
-17.74
-6.50
3.86
12.63
19.48
24.32
27.17
28.10
27.12
24.35
19.99
14.40
8.02
1.33
-5.30
-11.60
-17.43
-22.68
-27.24
-30.99
-33.87
-35.91
-37.31
-38.43
-39.71
-41.62
-44.47
-48.26
-52.51
-56.32
-58.50
-57.90
-53.77
-46.02
-35.20
-22.35
-8.62
4.90
17.41
28.32
37.21
43.73
47.67
48.97
47.84
44.73
40.22
34.86
29.09
23.14
17.17
11.30
5.67
0.45
-4.28
-8.51
-12.41
-16.19
-20.13
-24.44
-29.15
-33.99
-38.38
-41.44
-42.24
-40.09
-34.84
-26.96
-17.43
-7.42
2.09
10.40
17.15
22.06
24.86
25.26
23.20
18.95
13.27
7.22
1.88
-1.99
-4.13
-4.77
-4.43
-3.62
-2.64
-1.58
-0.47
0.55
1.14
0.82
-0.83
-3.88
-7.91
-11.97
-14.83
-15.24
-12.37
-5.96
3.57
15.30
28.07
40.77
52.49
62.62
70.79
76.76
80.41
81.68
80.60
77.33
72.07
65.10
56.68
47.05
36.48
25.31
14.05
3.29
-6.37
-14.44
-20.72
-25.29
-28.54
-30.96
-33.09
-35.35
-37.93
-40.78
-43.58
-45.67
-46.28
-44.58
-40.00
-32.45
-22.39
-10.78
1.14
12.14
21.27
27.93
31.91
33.26
32.15
28.80
23.55
16.81
9.13
1.13
-6.65
-13.81
-20.16
-25.60
-30.06
-33.43
-35.61
-36.65
-36.87
-36.83
-37.26
-38.74
-41.47
-45.00
-48.27
-49.87
-48.38
-42.91
-33.37
-20.57
-5.95
8.74
21.97
32.66
40.28
44.77
46.32
45.31
42.19
37.56
32.05
26.31
20.83
15.91
11.62
7.88
4.53
1.50
-1.13
-3.20
-4.49
-4.92
-4.59
-3.87
-3.30
-3.45
-4.73
-7.17
-10.31
-13.25
-14.83
-14.05
-10.31
-3.66
5.16
14.99
24.54
32.72
38.83
42.63
44.24
43.96
42.20
39.29
35.51
31.03
25.96
20.38
14.41
8.22
2.06
-3.79
-9.11
-13.78
-17.89
-21.69
-25.56
-29.91
-35.00
-40.73
-46.57
-51.60
-54.69
-54.80
-51.30
-44.17
-33.97
-21.74
-8.71
3.97
15.33
24.74
31.89
36.75
39.53
40.59
40.25
38.77
36.26
32.79
28.50
23.63
18.56
13.69
9.29
5.48
2.15
-0.87
-3.77
-6.69
-9.66
-12.66
-15.48
-17.75
-18.86
-18.09
-14.88
-9.11
-1.27
7.63
16.31
23.64
28.92
32.03
33.30
33.23
32.24
30.54
28.08
24.70
20.27
14.85
8.63
1.99
-4.70
-11.13
-17.08
-22.42
-27.04
-30.84
-33.78
-36.00
-37.85
-39.86
-42.49
-45.92
-49.79
-53.23
-55.06
-54.22
-50.12
-42.87
-33.25
-22.45
-11.71
-2.03
5.98
12.04
16.07
18.10
18.32
17.10
15.02
12.77
10.94
9.82
9.30
9.03
8.63
7.92
6.98
5.98
5.01
3.97
2.51
0.27
-2.99
-7.30
-12.42
-17.83
-22.80
-26.46
-27.96
-26.69
-22.48
-15.67
-7.11
2.15
11.10
18.99
25.44
30.32
33.68
35.58
36.14
35.57
34.16
32.33
30.52
29.00
27.87
26.97
26.04
24.83
23.23
21.30
19.14
16.77
14.11
10.91
6.90
1.91
-3.99
-10.40
-16.61
-21.70
-24.76
-25.18
-22.85
-18.24
-12.26
-5.97
-0.34
4.00
6.79
8.04
7.92
6.64
4.44
1.64
-1.41
-4.33
-6.85
-8.83
-10.25
-11.14
-11.49
-11.24
-10.29
-8.63
-6.38
-3.81
-1.26
0.93
2.55
3.56
4.23
5.07
6.88
10.52
16.70
25.70
37.15
50.01
62.74
73.66
81.42
85.35
85.56
82.79
78.07
72.30
66.00
59.32
52.15
44.39
36.07
27.31
18.27
9.06
-0.24
-9.42
-18.12
-25.87
-32.26
-37.12
-40.74
-43.79
-47.10
-51.33
-56.70
-62.78
-68.60
-72.97
-74.91
-73.96
-70.27
-64.51
-57.56
-50.32
-43.57
-37.95
-33.98
-31.99
-32.03
-33.79
-36.65
-39.90
-42.93
-45.45
-47.46
-49.11
-50.58
-51.89
-52.92
-53.48
-53.37
-52.47
-50.79
-48.37
-45.29
-41.66
-37.64
-33.54
-29.65
-26.22
-23.23
-20.27
-16.68
-11.79
-5.26
2.69
11.34
19.71
27.00
32.84
37.34
40.96
44.11
46.89
48.91
49.54
48.26
45.15
40.93
36.81
33.90
32.85
33.55
35.38
37.44
38.93
39.37
38.41
35.76
31.21
24.82
17.00
8.59
0.63
-5.86
-9.87
-10.92
-9.13
-5.05
0.51
6.74
12.91
18.38
22.66
25.94
28.40
30.11
31.06
31.46
31.69
32.14
32.95
33.86
35.11
36.41
37.03
36.30
34.25
32.01
31.43
34.37
41.86
54.49
70.80
87.54
100.89
108.09
108.42
103.18
95.00
80.81
61.24
40.25
23.06
12.19
6.06
0.75
-7.51
-20.59
-37.84
-55.65
-70.24
-79.27
-82.43
-80.93
-76.56
-70.96
-65.18
-60.18
-54.87
-48.64
-41.64
-34.59
-28.13
-22.55
-17.72
-13.42
-9.43
-5.25
-0.84
3.42
6.88
9.06
9.89
9.66
8.89
8.76
10.28
13.92
19.56
26.56
33.97
40.73
45.77
48.08
46.89
41.87
33.21
21.64
8.34
-5.36
-18.30
-29.68
-39.21
-46.91
-53.02
-57.90
-61.92
-65.51
-69.14
-73.23
-78.03
-83.54
-89.51
-95.46
-100.73
-104.56
-106.16
-104.89
-100.41
-92.75
-82.34
-69.93
-56.46
-42.87
-29.96
-18.34
-8.41
-0.34
5.89
10.53
14.01
16.90
19.79
23.07
26.85
30.80
34.28
36.55
37.06
35.65
32.59
28.42
23.76
19.11
14.69
10.42
6.00
0.99
-4.94
-11.82
-19.18
-26.05
-31.14
-33.30
-31.84
-26.86
-19.14
-9.92
-0.47
8.21
15.42
20.76
23.97
25.00
23.98
21.32
17.70
13.86
10.39
7.62
5.56
3.99
2.62
1.22
-0.27
-1.78
-3.20
-4.49
-5.75
-7.31
-9.58
-13.04
-17.98
-24.37
-31.73
-39.07
-45.05
-48.25
-47.51
-42.27
-32.72
-19.79
-4.87
10.48
24.93
37.49
47.63
55.10
59.88
62.08
61.98
60.05
56.89
53.18
49.49
46.11
43.00
39.86
36.24
31.84
26.67
20.98
15.23
9.73
4.58
-0.47
-5.88
-12.14
-19.55
-28.01
-36.92
-45.20
-51.44
-54.25
-52.65
-46.36
-35.97
-22.77
-8.42
5.51
17.84
27.93
35.52
40.62
43.34
43.88
42.55
39.82
36.29
32.52
28.89
25.48
22.12
18.59
14.77
10.81
7.01
3.71
1.06
-1.07
-2.99
-5.11
-7.75
-11.21
-15.64
-21.09
-27.30
-33.57
-38.75
-41.42
-40.38
-35.06
-25.85
-13.93
-0.91
11.70
22.83
31.98
39.03
44.02
46.99
48.04
47.41
45.56
43.15
40.85
39.10
37.97
37.18
36.27
34.81
32.63
29.83
26.67
23.38
19.98
16.13
11.32
5.09
-2.79
-12.15
-22.50
-33.09
-43.06
-51.46
-57.32
-59.73
-58.11
-52.44
-43.38
-32.16
-20.28
-9.06
0.61
8.28
13.82
17.15
18.24
17.14
14.14
9.90
5.29
1.24
-1.66
-3.23
-3.70
-3.55
-3.20
-2.88
-2.54
-1.97
-0.90
0.81
3.10
5.67
8.06
9.76
10.33
9.57
7.67
5.25
3.25
2.70
4.35
8.38
14.42
21.59
28.88
35.34
40.34
43.46
44.52
43.52
40.61
36.17
30.76
25.02
19.55
14.74
10.75
7.51
4.88
2.59
0.41
-1.92
-4.52
-7.34
-10.17
-12.66
-14.59
-16.03
-17.42
-19.44
-22.68
-27.24
-32.58
-37.57
-40.90
-41.56
-39.16
-34.02
-27.03
-19.34
-12.05
-6.06
-1.95
0.00
-0.18
-2.23
-5.68
-9.95
-14.47
-18.79
-22.60
-25.72
-28.18
-30.08
-31.53
-32.56
-33.01
-32.58
-31.01
-28.23
-24.54
-20.56
-17.11
-14.82
-13.98
-14.35
-15.23
-15.71
-14.90
-12.16
-7.29
-0.44
7.92
17.13
26.55
35.58
43.74
50.64
56.02
59.71
61.74
62.30
61.83
60.84
59.82
58.99
58.29
57.33
55.58
52.63
48.38
43.05
37.09
30.88
24.60
18.09
11.08
3.38
-4.95
-13.46
-21.40
-27.86
-32.03
-33.37
-31.75
-27.52
-21.43
-14.46
-7.62
-1.78
2.46
4.69
4.69
2.30
-2.44
-9.27
-17.60
-26.59
-35.32
-42.98
-49.10
-53.52
-56.34
-57.77
-57.99
-57.15
-55.43
-53.04
-50.30
-47.59
-45.31
-43.65
-42.52
-41.43
-39.51
-35.75
-29.31
-19.81
-7.54
6.55
21.12
34.76
46.36
55.26
61.33
64.77
66.00
65.52
63.82
61.41
58.79
56.31
54.17
52.30
50.42
48.12
45.04
40.93
35.82
29.93
23.65
17.29
10.98
4.57
-2.35
-10.22
-19.25
-29.16
-39.07
-47.66
-53.51
-55.58
-53.51
-47.71
-39.14
-28.97
-18.22
-7.51
2.91
13.04
22.86
32.11
40.18
46.16
49.05
48.03
42.74
33.51
21.30
7.46
-6.64
-19.91
-31.79
-42.14
-51.05
-58.60
-64.81
-69.63
-73.05
-75.20
-76.18
-75.96
-74.31
-70.80
-65.06
-56.91
-46.46
-34.08
-20.27
-5.56
9.48
24.19
37.80
49.47
58.50
64.50
67.48
67.83
66.17
63.12
59.18
54.64
49.70
44.48
39.16
34.07
29.56
25.94
23.36
21.78
20.92
20.42
19.84
18.79
17.01
14.47
11.38
8.24
5.71
4.31
4.34
5.67
7.84
10.27
12.42
13.92
14.60
14.37
13.16
10.97
7.87
4.10
-0.06
-4.32
-8.56
-12.78
-16.98
-21.05
-24.65
-27.32
-28.62
-28.42
-26.97
-24.93
-23.21
-22.77
-24.35
-28.37
-34.82
-43.19
-52.42
-61.04
-67.28
-69.51
-66.65
-58.56
-46.11
-30.91
-14.91
0.32
13.88
25.64
36.04
45.62
54.63
62.83
69.62
74.30
76.45
76.14
73.96
70.94
68.20
66.74
67.11
69.28
72.53
75.63
77.14
75.83
71.16
63.40
53.56
42.96
32.75
23.58
15.52
8.33
1.70
-4.49
-10.20
-15.30
-19.72
-23.47
-26.65
-29.34
-31.55
-33.24
-34.36
-34.88
-34.83
-34.27
-33.31
-32.05
-30.60
-29.02
-27.33
-25.54
-23.62
-21.62
-19.68
-17.99
-16.77
-16.17
-16.23
-16.87
-17.90
-19.11
-20.21
-20.92
-20.96
-20.08
-18.15
-15.20
-11.49
-7.46
-3.63
-0.45
1.74
2.80
2.76
1.78
0.07
-2.12
-4.52
-6.88
-9.00
-10.77
-12.21
-13.45
-14.71
-16.19
-18.00
-20.03
-22.07
-23.85
-25.20
-26.13
-26.87
-27.75
-29.03
-30.83
-32.99
-35.19
-36.98
-37.95
-37.82
-36.48
-34.00
-30.57
-26.50
-22.16
-17.93
-14.19
-11.24
-9.31
-8.45
-8.58
-9.42
-10.59
-11.78
-12.89
-14.04
-15.57
-17.79
-20.85
-24.57
-28.48
-32.06
-34.88
-36.81
-37.99
-38.71
-39.34
-40.13
-41.26
-42.75
-44.52
-46.28
-47.61
-48.00
-46.95
-44.17
-39.64
-33.61
-26.47
-18.67
-10.46
-1.69
8.11
19.66
33.48
49.48
66.68
83.32
97.43
107.58
113.46
116.00
116.83
117.45
118.58
120.01
121.03
121.12
120.44
119.68
119.56
120.07
120.27
118.60
113.75
105.41
94.58
83.03
72.42
63.58
56.30
49.80
43.40
37.06
31.27
26.61
23.18
20.37
17.18
12.61
6.13
-2.24
-12.09
-22.87
-34.03
-45.04
-55.35
-64.41
-71.76
-77.15
-80.55
-82.17
-82.38
-81.63
-80.39
-79.00
-77.61
-76.15
-74.34
-71.93
-68.83
-65.24
-61.70
-58.77
-56.91
-56.24
-56.44
-56.89
-56.81
-55.51
-52.53
-47.82
-41.70
-34.85
-28.08
-22.10
-17.39
-14.09
-12.08
-11.07
-10.72
-10.75
-10.91
-11.09
-11.20
-11.27
-11.32
-11.37
-11.37
-11.31
-11.21
-11.15
-11.33
-11.89
-12.85
-14.03
-15.09
-15.66
-15.52
-14.70
-13.42
-12.04
-10.83
-9.91
-9.26
-8.73
-8.17
-7.37
-6.08
-3.96
-0.68
3.99
10.00
16.99
24.37
31.53
37.99
43.48
47.84
50.92
52.56
52.65
51.35
49.17
46.91
45.30
44.60
44.42
43.82
41.73
37.54
31.41
24.27
17.45
12.14
9.08
8.43
9.82
12.40
14.76
15.03
11.27
2.19
-12.01
-29.40
-46.78
-60.92
-69.79
-73.18
-72.40
-69.24
-64.86
-59.42
-52.41
-43.42
-32.80
-21.63
-11.24
-2.50
4.57
10.58
16.27
21.95
27.23
31.32
33.45
33.44
31.88
30.01
29.26
30.76
35.04
41.94
50.72
60.21
69.00
75.52
78.30
76.22
68.87
56.72
41.00
23.35
5.34
-11.99
-28.13
-42.96
-56.39
-68.04
-77.20
-83.03
-84.81
-82.33
-75.94
-66.49
-55.10
-42.86
-30.66
-19.19
-9.04
-0.76
5.09
8.12
8.34
6.25
2.82
-0.80
-3.65
-5.27
-5.77
-5.70
-5.69
-6.24
-7.51
-9.36
-11.42
-13.31
-14.74
-15.66
-16.31
-17.13
-18.65
-21.26
-25.03
-29.60
-34.19
-37.79
-39.43
-38.44
-34.59
-28.17
-19.89
-10.69
-1.51
6.85
13.88
19.32
23.08
25.22
25.83
25.07
23.17
20.50
17.56
14.90
12.96
11.93
11.72
11.92
12.03
11.65
10.57
8.87
6.77
4.54
2.32
0.12
-2.18
-4.81
-8.05
-12.11
-16.96
-22.19
-26.96
-30.07
-30.35
-27.10
-20.41
-11.16
-0.81
9.16
17.62
24.04
28.35
30.76
31.48
30.73
28.72
25.76
22.34
18.98
16.14
14.00
12.50
11.33
10.07
8.44
6.32
3.84
1.30
-1.01
-2.94
-4.61
-6.38
-8.73
-12.00
-16.31
-21.45
-26.90
-31.89
-35.55
-37.05
-35.75
-31.45
-24.49
-15.72
-6.29
2.61
10.10
15.72
19.45
21.50
22.13
21.54
19.86
17.28
14.12
10.81
7.83
5.56
4.14
3.49
3.25
3.01
2.42
1.31
-0.26
-2.11
-4.00
-5.85
-7.70
-9.79
-12.43
-15.87
-20.13
-24.93
-29.66
-33.35
-34.98
-33.82
-29.72
-23.07
-14.73
-5.76
2.83
10.32
16.41
20.99
24.00
25.27
24.80
22.78
19.66
16.01
12.45
9.59
7.80
6.96
6.44
5.69
4.34
2.26
-0.38
-3.22
-5.35
-6.20
-6.04
-6.34
-8.25
-12.46
-19.06
-27.67
-37.31
-45.54
-49.96
-49.16
-43.97
-34.94
-22.79
-8.57
6.26
20.38
34.56
49.68
65.69
79.88
91.27
100.03
107.12
113.65
121.05
132.96
152.20
179.10
209.21
239.07
265.59
285.93
297.18
285.20
243.25
176.96
113.17
60.14
18.34
-15.94
-43.90
-66.48
-84.35
-95.98
-100.28
-97.91
-93.05
-87.43
-81.16
-73.44
-63.98
-52.93
-39.38
-23.24
-5.88
8.73
18.78
23.95
24.85
22.01
16.01
8.45
0.75
-6.54
-14.63
-23.78
-33.77
-44.25
-55.19
-66.56
-77.72
-87.90
-96.56
-103.87
-109.53
-113.05
-114.10
-112.80
-109.66
-105.34
-100.62
-96.32
-93.09
-90.89
-89.00
-86.39
-82.06
-75.43
-66.43
-55.49
-43.41
-31.09
-19.37
-8.87
-0.11
6.53
10.73
12.41
11.76
9.41
6.18
2.97
0.34
-1.51
-2.78
-3.83
-4.91
-6.14
-7.48
-8.81
-10.05
-11.15
-12.07
-12.81
-13.43
-14.08
-15.02
-16.55
-18.91
-22.17
-26.13
-30.24
-33.72
-35.62
-35.09
-31.66
-25.42
-17.07
-7.64
1.73
10.13
17.01
22.13
25.40
26.81
26.43
24.50
21.48
17.98
14.64
11.93
10.02
8.80
7.94
7.06
5.90
4.39
2.69
1.03
-0.42
-1.72
-3.13
-5.05
-7.80
-11.49
-15.98
-20.89
-25.66
-29.61
-32.06
-32.36
-30.13
-25.32
-18.36
-10.04
-1.32
6.96
14.19
20.06
24.40
27.09
28.02
27.20
24.85
21.48
17.75
14.29
11.49
9.43
7.90
6.62
5.36
4.04
2.73
1.48
0.28
-0.99
-2.56
-4.64
-7.40
-10.95
-15.25
-20.08
-25.01
-29.35
-32.23
-32.89
-30.83
-26.05
-19.08
-10.78
-2.06
6.27
13.71
19.89
24.57
27.48
28.47
27.53
24.95
21.28
17.18
13.27
9.94
7.27
5.10
3.16
1.24
-0.66
-2.42
-3.91
-5.09
-6.14
-7.41
-9.30
-12.09
-15.86
-20.45
-25.46
-30.30
-34.19
-36.29
-35.85
-32.43
-26.11
-17.53
-7.72
2.15
11.05
18.30
23.60
26.91
28.37
28.20
26.69
24.20
21.22
18.24
15.74
13.98
12.98
12.48
12.07
11.36
10.05
8.10
5.67
3.06
0.53
-1.78
-4.03
-6.51
-9.64
-13.66
-18.52
-23.80
-28.70
-32.31
-33.76
-32.50
-28.45
-21.95
-13.70
-4.61
4.36
12.40
18.93
23.65
26.44
27.42
26.76
24.75
21.78
18.37
15.06
12.36
10.54
9.56
9.09
8.65
7.85
6.56
4.89
3.14
1.51
0.06
-1.39
-3.11
-5.33
-8.12
-11.44
-15.18
-19.24
-23.48
-27.58
-30.91
-32.66
-32.05
-28.66
-22.69
-14.90
-6.35
1.94
9.30
15.43
20.26
23.77
25.89
26.57
25.95
24.38
22.39
20.45
18.83
17.60
16.65
15.91
15.39
15.14
15.14
15.22
15.06
14.34
12.90
10.84
8.45
6.00
3.66
1.39
-0.92
-3.44
-6.28
-9.52
-13.20
-17.24
-21.31
-24.73
-26.63
-26.15
-22.85
-16.94
-9.25
-0.91
7.03
13.90
19.41
23.53
26.29
27.64
27.58
26.30
24.18
21.81
19.71
18.19
17.22
16.60
16.03
15.35
14.57
13.77
13.06
12.44
11.78
10.88
9.58
7.80
5.59
3.13
0.61
-1.76
-3.83
-5.55
-6.97
-8.27
-9.74
-11.64
-14.06
-16.76
-19.15
-20.45
-19.97
-17.38
-12.90
-7.13
-0.84
5.33
11.03
16.12
20.58
24.30
27.05
28.60
28.84
27.94
26.25
24.26
22.43
21.05
20.22
19.85
19.76
19.76
19.70
19.50
19.09
18.43
17.48
16.19
14.61
12.86
11.12
9.57
8.24
7.06
5.84
4.40
2.65
0.58
-1.71
-4.11
-6.50
-8.87
