1495528584.00
64.000000
-0.00
-0.00
-0.00
-0.00
-0.00
-0.00
-0.00
-0.00
-0.00
-0.00
0.00
0.01
0.01
-0.00
-0.03
-0.05
-0.05
0.00
0.13
0.36
0.66
1.01
1.37
1.72
2.06
2.40
2.79
3.24
3.80
4.42
5.06
5.66
6.20
6.68
7.15
7.68
8.31
9.14
10.09
11.04
11.88
12.56
13.14
13.76
14.65
15.96
17.91
20.32
22.90
25.38
27.58
29.57
31.68
34.32
37.81
42.54
48.15
54.10
59.83
64.97
69.58
74.14
79.34
85.71
93.76
103.00
112.62
121.73
129.77
136.75
143.30
150.75
157.77
166.64
177.95
191.79
206.97
220.57
228.25
225.36
208.53
176.87
132.76
80.05
23.07
-34.94
-92.44
-149.16
-205.23
-260.37
-313.74
-363.87
-409.83
-450.91
-486.50
-515.74
-537.23
-549.22
-549.96
-538.37
-514.21
-478.67
-433.88
-382.45
-327.02
-269.84
-212.63
-156.66
-102.95
-52.37
-5.90
35.58
71.43
101.35
125.50
144.38
158.69
169.15
176.37
180.75
182.57
182.07
179.51
175.23
169.65
163.18
156.15
148.81
141.30
133.69
126.02
118.33
110.69
103.16
95.80
88.68
81.83
75.25
68.95
62.95
57.25
51.86
46.78
42.03
37.59
33.45
29.61
26.07
22.81
19.83
17.11
14.67
12.48
10.54
8.83
7.35
6.07
4.97
4.05
3.27
2.62
2.09
1.65
1.30
1.01
0.79
0.61
0.47
0.37
0.28
0.22
0.18
0.14
0.12
0.11
0.11
0.11
0.13
0.14
0.17
0.20
0.23
0.27
0.31
0.36
0.40
0.45
0.50
0.55
0.60
0.65
0.71
0.77
0.84
0.91
0.99
1.08
1.17
1.28
1.39
1.53
1.67
1.84
2.03
2.23
2.46
2.72
3.00
3.31
3.64
4.02
4.43
4.87
5.35
5.87
6.43
7.02
7.67
8.35
9.08
9.86
10.67
11.54
12.45
13.40
14.41
15.49
16.62
17.82
19.06
20.34
21.60
22.79
23.83
24.59
24.99
24.86
24.10
22.59
20.29
17.21
13.46
9.11
4.40
-0.47
-5.29
-9.85
-13.99
-17.59
-20.55
-22.80
-24.31
-25.10
-25.24
-24.83
-24.03
-22.98
-21.84
-20.64
-19.41
-18.10
-16.65
-15.07
-13.41
-11.82
-10.43
-9.37
-8.67
-8.20
-7.77
-7.21
-6.46
-5.65
-4.97
-4.75
-5.20
-6.31
-7.87
-9.45
-10.68
-11.44
-11.86
-12.27
-13.17
-14.94
-17.66
-21.01
-24.51
-27.60
-30.14
-32.17
-33.92
-35.93
-38.89
-43.57
-50.52
-59.72
-70.13
-79.77
-85.68
-85.12
-76.70
-61.08
-40.80
-19.35
0.11
16.92
29.92
38.87
44.20
46.39
45.89
43.17
38.99
34.36
30.30
27.25
25.33
24.24
23.41
22.39
21.05
19.61
18.42
17.74
17.42
17.28
17.08
16.58
15.60
14.02
11.76
8.80
5.27
1.35
-2.45
-5.49
-7.19
-7.15
-5.30
-1.88
2.58
7.48
12.22
16.43
19.89
22.39
23.68
23.50
21.74
18.55
14.39
9.83
5.37
1.28
-2.45
-5.92
-9.10
-11.78
-13.70
-14.77
-15.26
-15.71
-16.68
-18.55
-21.33
-24.66
-28.00
-30.73
-32.27
-32.07
-29.71
-24.98
-18.06
-9.50
-0.17
8.91
16.89
23.23
27.76
30.50
31.60
31.19
29.49
26.84
23.80
20.97
18.83
17.59
17.09
16.95
16.73
16.02
14.60
12.35
9.34
5.76
1.94
-1.80
-5.33
-8.70
-12.29
-16.45
-21.24
-26.20
-30.29
-32.21
-30.89
-25.91
-17.71
-7.49
3.17
12.81
20.43
25.73
28.87
30.26
30.33
29.35
27.54
25.21
22.80
20.83
19.73
19.59
20.16
20.88
21.16
20.62
19.22
17.11
14.49
11.49
8.11
4.38
0.41
-3.63
-7.57
-11.39
-15.23
-19.32
-23.84
-28.85
-34.13
-39.26
-43.65
-46.55
-47.16
-44.85
-39.32
-30.85
-20.38
-9.22
1.23
9.94
16.39
20.51
22.53
22.78
21.58
19.37
16.64
14.02
12.08
11.14
11.23
12.01
13.00
13.72
13.90
13.50
12.65
11.51
10.16
8.52
6.46
3.84
0.66
-2.82
-6.20
-8.98
-10.77
-11.51
-11.53
-11.47
-12.08
-13.86
-16.87
-20.62
-24.14
-26.35
-26.33
-23.54
-17.95
-9.98
-0.44
9.66
19.27
27.45
33.62
37.52
39.20
38.96
37.15
34.22
30.64
27.01
23.95
22.03
21.48
22.10
23.28
24.26
24.36
23.34
21.31
18.71
16.00
13.45
11.09
8.76
6.26
3.54
0.77
-1.75
-3.70
-5.02
-5.87
-6.62
-7.68
-9.34
-11.68
-14.58
-17.83
-21.09
-23.93
-25.76
-25.87
-23.63
-18.76
-11.55
-2.84
6.29
14.87
22.22
27.98
32.00
34.17
34.51
33.24
30.87
28.11
25.64
23.90
22.93
22.54
22.43
22.43
22.56
22.89
23.43
24.06
24.53
24.61
24.10
22.91
21.02
18.46
15.29
11.65
7.70
3.57
-0.62
-4.81
-8.94
-13.01
-16.97
-20.85
-24.57
-28.00
-30.91
-32.92
-33.56
-32.33
-28.92
-23.32
-15.99
-7.71
0.47
7.56
12.81
15.88
16.79
15.82
13.32
9.61
5.05
0.08
-4.69
-8.64
-11.24
-12.37
-12.31
-11.59
-10.86
-10.51
-10.62
-11.08
-11.70
-12.44
-13.30
-14.35
-15.52
-16.75
-17.95
-19.17
-20.51
-22.14
-24.18
-26.70
-29.60
-32.57
-35.15
-36.67
-36.45
-33.99
-29.15
-22.29
-14.20
-5.86
1.86
8.42
13.60
17.39
19.76
20.58
19.73
17.30
13.73
9.72
6.09
3.47
2.10
1.81
2.13
2.51
2.51
1.88
0.57
-1.40
-3.95
-6.96
-10.25
-13.50
-16.37
-18.63
-20.27
-21.51
-22.79
-24.47
-26.78
-29.67
-32.84
-35.70
-37.48
-37.31
-34.30
-27.90
-18.25
-6.34
6.07
16.97
24.78
28.88
29.81
28.88
27.50
26.52
26.00
25.30
23.68
20.76
16.75
12.45
8.85
6.89
7.20
10.11
15.68
23.71
33.76
45.19
57.42
70.22
83.86
98.95
115.61
132.62
146.81
153.36
147.15
124.87
86.68
37.02
-16.31
-64.50
-100.36
-120.37
-125.18
-118.49
-105.01
-88.58
-71.20
-53.24
-34.49
-15.09
4.12
21.79
36.72
48.49
57.58
64.94
71.50
77.57
82.46
84.71
82.45
73.85
57.65
33.41
1.43
-37.37
-81.73
-130.00
-179.74
-227.46
-268.80
-299.38
-316.21
-318.88
-309.77
-293.15
-273.50
-253.87
-235.18
-216.67
-196.94
-175.26
-151.92
-128.08
-105.07
-83.82
-64.71
-47.79
-33.03
-20.42
-10.08
-1.94
4.34
9.38
13.93
18.65
23.80
29.12
33.89
37.22
38.50
37.68
35.33
32.38
29.76
27.97
26.96
26.23
25.04
22.74
18.98
13.81
7.80
1.85
-3.00
-5.82
-6.20
-4.34
-1.05
2.52
5.26
6.43
5.80
3.60
0.31
-3.53
-7.56
-11.44
-14.89
-17.47
-18.63
-17.63
-13.85
-6.95
2.89
14.96
28.28
41.84
54.84
66.82
77.57
86.90
94.58
100.18
103.27
103.59
101.18
96.42
89.92
82.45
74.74
67.53
61.55
57.46
55.65
56.08
58.19
61.04
63.57
64.98
64.88
63.30
60.51
56.80
52.43
47.69
42.92
38.47
34.59
31.33
28.48
25.84
23.30
20.94
18.97
17.51
16.47
15.56
14.48
13.06
11.32
9.39
7.22
4.64
1.52
-1.96
-5.18
-7.20
-7.13
-4.59
0.13
6.20
12.54
18.27
22.84
26.06
27.90
28.42
27.71
25.89
23.26
20.30
17.49
15.28
13.84
13.08
12.68
12.25
11.54
10.56
9.57
8.87
8.62
8.71
8.80
8.48
7.41
5.40
2.51
-0.98
-4.54
-7.48
-9.01
-8.52
-5.82
-1.24
4.40
10.06
14.81
18.15
20.00
20.53
20.03
18.66
16.55
13.86
10.94
8.28
6.38
5.46
5.35
5.56
5.51
4.84
3.63
2.28
1.30
0.92
0.94
0.79
-0.16
-2.31
-5.57
-9.42
-12.98
-15.31
-15.71
-13.84
-9.85
-4.32
1.86
7.77
12.60
15.78
17.08
16.60
14.62
11.62
8.06
4.40
1.08
-1.56
-3.21
-3.75
-3.25
-1.97
-0.35
1.16
2.25
2.88
3.13
3.12
2.77
1.83
0.06
-2.60
-5.74
-8.66
-10.60
-11.03
-9.77
-6.97
-2.99
1.79
6.89
11.77
15.75
18.15
18.45
16.58
12.98
8.46
4.03
0.52
-1.62
-2.32
-1.89
-0.80
0.40
1.19
1.14
0.03
-2.13
-5.17
-8.82
-12.83
-16.96
-20.96
-24.41
-26.70
-27.12
-25.14
-20.65
-14.08
-6.25
1.80
9.21
15.45
20.30
23.71
25.71
26.27
25.36
23.01
19.41
14.95
10.19
5.67
1.90
-0.86
-2.57
-3.37
-3.57
-3.61
-3.93
-4.97
-7.07
-10.27
-14.30
-18.52
-22.11
-24.25
-24.28
-21.79
-16.58
-8.79
1.08
11.99
22.46
30.99
36.43
38.47
37.64
34.97
31.55
27.99
24.43
20.73
16.82
12.90
9.42
6.74
4.98
3.92
3.16
2.33
1.22
-0.23
-2.12
-4.59
-7.91
-12.23
-17.39
-22.82
-27.48
-30.13
-29.76
-25.92
-18.93
-9.73
0.35
10.07
18.39
24.64
28.44
29.65
28.42
25.20
20.76
15.97
11.72
8.54
6.65
5.93
6.04
6.55
6.94
6.80
5.84
4.05
1.65
-0.99
-3.56
-5.91
-8.10
-10.35
-12.90
-15.92
-19.38
-23.08
-26.58
-29.24
-30.34
-29.24
-25.65
-19.74
-12.07
-3.48
5.18
13.15
19.88
24.93
28.07
29.23
28.62
26.72
24.12
21.42
19.09
17.31
16.13
15.47
15.11
14.76
14.04
12.59
10.27
7.19
3.73
0.27
-2.92
-5.82
-8.56
-11.22
-13.80
-16.14
-18.17
-19.90
-21.50
-23.04
-24.32
-24.79
-23.73
-20.57
-15.21
-8.14
-0.27
7.36
13.92
18.89
22.10
23.68
23.88
23.03
21.39
19.13
16.34
13.18
9.90
6.93
4.77
3.75
3.91
4.83
5.85
6.30
5.80
4.33
2.20
-0.32
-2.99
-5.80
-8.68
-11.55
-14.17
-16.33
-17.99
-19.31
-20.62
-22.15
-23.85
-25.20
-25.32
-23.36
-18.77
-11.66
-2.81
6.55
15.14
21.98
26.62
29.11
29.88
29.43
28.23
26.63
24.83
23.03
21.30
19.66
18.01
16.22
14.23
12.01
9.67
7.26
4.79
2.13
-0.80
-4.04
-7.44
-10.71
-13.54
-15.70
-17.18
-18.07
-18.63
-19.16
-19.89
-20.96
-22.17
-23.03
-22.74
-20.49
-15.77
-8.66
0.06
9.10
17.00
22.62
25.36
25.29
22.93
19.02
14.20
8.92
3.47
-1.92
-6.90
-11.08
-14.00
-15.47
-15.60
-14.84
-13.91
-13.47
-13.92
-15.29
-17.30
-19.58
-21.77
-23.67
-25.27
-26.66
-27.96
-29.33
-30.83
-32.42
-33.90
-34.93
-35.18
-34.39
-32.50
-29.68
-26.19
-22.28
-18.16
-14.01
-10.09
-6.81
-4.69
-4.18
-5.53
-8.67
-13.28
-18.91
-25.05
-31.16
-36.75
-41.44
-45.16
-48.06
-50.54
-52.93
-55.33
-57.42
-58.54
-58.00
-55.30
-50.35
-43.38
-34.83
-25.16
-14.84
-4.22
6.45
17.09
27.85
38.94
50.48
62.23
73.55
83.53
91.26
96.15
98.13
97.54
94.97
90.92
85.69
79.40
72.20
64.44
56.68
49.58
43.61
38.84
34.93
31.34
27.58
23.49
19.22
15.10
11.34
7.94
4.69
1.39
-2.08
-5.69
-9.30
-12.73
-15.82
-18.31
-19.81
-19.83
-17.90
-13.81
-7.77
-0.41
7.34
14.47
20.13
23.80
25.24
24.56
22.05
18.15
13.44
8.52
3.97
0.23
-2.53
-4.32
-5.42
-6.15
-6.77
-7.43
-8.13
-8.75
-9.17
-9.36
-9.42
-9.65
-10.41
-12.02
-14.61
-17.96
-21.55
-24.58
-26.15
-25.43
-22.00
-15.94
-7.89
1.08
9.75
17.05
22.32
25.34
26.26
25.42
23.26
20.23
16.78
13.40
10.50
8.42
7.22
6.73
6.51
6.11
5.13
3.48
1.31
-1.00
-3.09
-4.78
-6.19
-7.72
-9.83
-12.85
-16.82
-21.35
-25.75
-29.14
-30.70
-29.94
-26.76
-21.46
-14.73
-7.40
-0.32
5.83
10.57
13.73
15.27
15.34
14.17
12.03
9.24
6.15
3.11
0.45
-1.66
-3.18
-4.27
-5.19
-6.12
-7.16
-8.24
-9.25
-10.13
-10.95
-11.88
-13.09
-14.73
-16.83
-19.27
-21.80
-24.08
-25.64
-25.98
-24.65
-21.35
-16.08
-9.20
-1.34
6.65
13.90
19.62
23.21
24.36
23.13
19.95
15.59
10.94
6.78
3.58
1.42
-0.00
-1.23
-2.79
-4.98
-7.82
-11.03
-14.17
-16.90
-19.12
-21.04
-23.03
-25.40
-28.22
-31.31
-34.28
-36.70
-38.19
-38.31
-36.66
-32.81
-26.61
-18.36
-8.91
0.60
9.02
15.62
20.17
22.84
23.91
23.61
22.02
19.34
15.94
12.37
9.21
6.81
5.18
4.08
3.19
2.29
1.31
0.21
-1.08
-2.68
-4.71
-7.17
-9.88
-12.62
-15.27
-17.84
-20.46
-23.17
-25.72
-27.53
-27.84
-25.98
-21.60
-14.87
-6.44
2.67
11.34
18.52
23.48
25.99
26.30
24.99
22.75
20.08
17.25
14.37
11.60
9.20
7.52
6.73
6.69
6.91
6.79
5.83
3.97
1.43
-1.39
-4.23
-7.03
-9.88
-12.95
-16.27
-19.81
-23.48
-27.13
-30.51
-33.15
-34.39
-33.48
-29.88
-23.61
-15.28
-6.02
2.88
10.29
15.55
18.47
19.25
18.28
16.00
12.89
9.39
6.01
3.17
1.24
0.33
0.36
1.02
1.90
2.61
2.90
2.64
1.87
0.72
-0.63
-2.00
-3.27
-4.42
-5.56
-6.92
-8.75
-11.25
-14.39
-17.85
-21.00
-22.97
-22.93
-20.31
-15.06
-7.68
0.87
9.52
17.34
23.83
28.87
32.48
34.71
35.49
34.72
32.48
29.20
25.50
22.13
19.68
18.44
18.35
19.09
20.15
21.02
21.23
20.53
18.89
16.57
14.05
11.84
10.35
9.71
9.68
9.82
9.73
9.23
8.54
8.23
9.11
11.96
17.31
25.23
35.32
46.81
58.80
70.42
80.96
89.90
96.94
101.97
105.10
106.66
107.27
107.78
109.11
112.11
117.32
124.76
133.83
143.31
151.44
156.15
155.49
148.09
133.52
112.30
85.81
55.79
24.02
-7.97
-39.00
-68.15
-94.65
-117.81
-137.02
-151.86
-162.10
-167.83
-169.48
-167.72
-163.52
-157.92
-151.83
-145.81
-140.01
-134.21
-128.03
-121.25
-114.02
-106.94
-100.92
-96.80
-95.07
-95.53
-97.35
-99.26
-100.08
-99.01
-95.96
-91.45
-86.36
-81.56
-77.61
-74.57
-72.11
-69.74
-67.00
-63.76
-60.16
-56.59
-53.46
-51.12
-49.69
-49.05
-48.92
-48.76
-47.92
-45.75
-41.72
-35.62
-27.69
-18.65
-9.49
-1.21
5.45
10.22
13.21
14.80
15.34
15.14
14.43
13.47
12.64
12.27
12.59
13.58
14.91
16.10
16.63
16.13
14.50
11.87
8.55
4.94
1.44
-1.73
-4.56
-7.26
-10.08
-13.11
-16.17
-18.80
-20.43
-20.68
-19.36
-16.49
-12.19
-6.60
0.06
7.45
14.97
21.91
27.61
31.74
34.38
35.95
36.96
37.76
38.37
38.59
38.11
36.77
34.77
32.54
30.66
29.56
29.36
29.81
30.42
30.73
30.39
29.31
27.57
25.31
22.66
19.68
16.42
12.98
9.49
6.14
3.04
0.23
-2.31
-4.56
-6.34
-7.28
-6.87
-4.65
-0.47
5.36
12.08
18.71
24.29
28.22
30.34
30.87
30.18
28.54
26.18
23.24
19.97
16.81
14.25
12.74
12.44
13.16
14.43
15.64
16.27
16.05
15.01
13.37
11.46
9.53
7.74
6.16
4.77
3.49
2.20
0.72
-1.22
-3.80
-7.03
-10.62
-13.94
-16.17
-16.51
-14.55
-10.37
-4.57
1.93
8.18
13.38
17.05
19.00
19.29
18.18
16.02
13.23
10.28
7.56
5.37
3.85
2.98
2.57
2.40
2.27
2.06
1.67
1.10
0.35
-0.56
-1.55
-2.53
-3.40
-4.10
-4.73
-5.41
-6.40
-7.82
-9.75
-12.01
-14.24
-15.88
-16.35
-15.13
-12.01
-7.17
-1.17
5.13
10.81
15.15
17.73
18.44
17.44
15.06
11.77
8.17
4.95
2.73
1.87
2.35
3.78
5.46
6.72
7.05
6.32
4.66
2.40
-0.09
-2.53
-4.72
-6.60
-8.19
-9.59
-10.90
-12.16
-13.32
-14.18
-14.50
-14.08
-12.82
-10.69
-7.78
-4.24
-0.31
3.73
7.52
10.79
13.31
14.95
15.67
15.45
14.25
12.06
8.94
5.10
0.91
-3.17
-6.65
-9.19
-10.56
-10.68
-9.55
-7.32
-4.29
-1.02
1.82
3.51
3.48
1.47
-2.35
-7.38
-12.75
-17.47
-20.63
-21.56
-19.91
-15.75
-9.52
-2.01
5.85
13.13
19.07
23.18
25.25
25.31
23.55
20.34
16.17
11.67
7.58
4.62
3.27
3.63
5.42
8.07
10.95
13.63
15.86
17.65
18.98
19.72
19.59
18.26
15.53
11.59
7.04
2.72
-0.44
-1.84
-1.33
0.82
4.03
7.68
11.25
14.41
16.93
18.66
19.43
19.12
17.72
15.35
12.27
8.84
5.38
2.09
-0.92
-3.69
-6.26
-8.54
-10.32
-11.23
-11.04
-9.75
-7.73
-5.58
-3.95
-3.31
-3.75
-4.98
-6.36
-7.06
-6.34
-3.64
1.13
7.60
15.02
22.47
29.15
34.59
38.60
41.21
42.51
42.63
41.72
40.08
38.08
36.00
33.97
31.80
29.23
26.00
22.15
17.94
13.74
9.85
6.31
2.92
-0.68
-4.80
-9.63
-15.14
-21.01
-26.63
-31.21
-33.92
-34.16
-31.74
-27.00
-20.69
-13.77
-7.23
-1.84
1.90
3.77
3.82
2.31
-0.36
-3.75
-7.50
-11.42
-15.41
-19.40
-23.26
-26.73
-29.47
-31.19
-31.77
-31.34
-30.31
-29.30
-28.99
-29.83
-31.93
-34.89
-37.89
-39.94
-40.10
-37.83
-33.09
-26.38
-18.54
-10.59
-3.49
2.08
5.72
7.39
7.35
6.01
3.87
1.35
-1.16
-3.44
-5.33
-6.77
-7.76
-8.37
-8.75
-9.16
-9.87
-11.15
-13.20
-16.03
-19.52
-23.31
-26.88
-29.56
-30.67
-29.61
-26.09
-20.20
-12.50
-3.89
4.55
11.81
17.18
20.35
21.45
20.87
19.19
16.95
14.56
12.25
10.08
8.06
6.25
4.80
3.86
3.50
3.52
3.50
2.90
1.27
-1.58
-5.56
-10.21
-14.89
-18.85
-21.30
-21.53
-19.12
-14.02
-6.69
1.88
10.52
18.05
23.72
27.26
28.82
28.72
27.29
24.77
21.35
17.28
12.95
8.81
5.22
2.38
0.27
-1.30
-2.58
-3.78
-5.09
-6.70
-8.79
-11.51
-14.84
-18.48
-21.84
-24.15
-24.60
-22.60
-17.97
-11.00
-2.49
6.45
14.71
21.35
25.83
28.05
28.25
26.83
24.28
21.06
17.58
14.24
11.30
8.88
6.90
5.19
3.55
1.95
0.46
-0.82
-1.86
-2.85
-4.10
-5.88
-8.37
-11.56
-15.30
-19.36
-23.41
-26.97
-29.36
-29.79
-27.56
-22.35
-14.46
-4.77
5.44
14.84
22.43
27.65
30.44
31.08
29.97
27.60
24.42
20.94
17.68
15.14
13.58
12.97
12.94
12.89
12.34
11.11
9.31
7.23
5.13
2.98
0.57
-2.36
-5.86
-9.71
-13.49
-16.86
-19.68
-22.17
-24.66
-27.43
-30.48
-33.43
-35.58
-36.08
-34.15
-29.37
-21.75
-11.85
-0.61
10.79
21.26
29.88
36.11
39.76
40.96
40.10
37.68
34.34
30.69
27.31
24.62
22.87
22.09
22.02
22.17
21.99
21.02
19.12
16.54
13.81
11.44
9.76
8.69
7.83
6.76
5.19
3.13
0.83
-1.34
-3.06
-4.10
-4.39
-4.03
-3.24
-2.39
-1.84
-1.81
-2.12
-2.18
-0.95
2.71
9.69
20.24
33.88
49.42
65.36
80.19
92.87
102.87
110.33
115.88
120.33
124.52
129.08
134.31
140.23
146.69
153.51
160.58
167.91
175.58
183.70
192.26
201.03
209.36
216.13
219.71
218.25
210.14
194.59
172.04
144.37
114.41
85.18
58.98
36.72
17.82
0.75
-16.08
-33.44
-50.73
-66.02
-76.59
-79.67
-73.11
-56.11
-29.56
3.68
39.17
71.69
96.62
111.29
115.68
112.19
104.56
96.35
89.92
86.09
84.67
85.13
87.19
90.65
95.08
99.41
101.90
100.62
94.07
81.76
64.22
42.67
18.34
-8.06
-36.63
-68.06
-103.11
-142.26
-185.55
-232.82
-283.58
-336.73
-389.91
-439.22
-479.56
-505.93
-514.93
-505.88
-480.90
-443.90
-399.23
-350.66
-300.98
-252.49
-207.34
-167.64
-134.87
-109.42
-90.39
-76.14
-65.24
-57.11
-52.07
-50.78
-53.58
-59.88
-68.19
-76.68
-83.73
-88.69
-92.27
-96.71
-105.14
-120.46
-143.75
-173.01
-203.04
-226.66
-237.40
-232.15
-212.73
-185.18
-157.14
-134.53
-119.25
-108.85
-98.36
-82.90
-59.91
-29.92
4.15
38.40
69.29
94.28
111.99
122.25
126.50
128.10
131.88
142.55
162.18
188.22
213.38
227.91
223.45
196.58
150.29
92.68
33.91
-16.96
-54.00
-74.64
-79.06
-69.54
-49.97
-25.58
-2.12
15.54
24.72
25.74
21.41
15.74
12.19
12.74
17.57
25.62
35.49
46.13
57.36
69.93
85.23
104.63
128.67
156.48
185.60
212.44
233.24
245.00
246.18
236.69
217.48
190.06
156.24
118.29
79.18
42.66
12.67
-7.59
-16.72
-15.71
-7.67
3.24
13.00
18.78
19.20
14.02
3.69
-11.11
-29.17
-48.54
-66.28
-79.04
-84.27
-81.34
-72.33
-61.67
-54.69
-55.80
-66.81
-86.48
-111.03
-135.56
-155.72
-168.81
-174.10
-172.52
-165.98
-156.63
-146.28
-136.06
-126.50
-116.80
-105.93
-92.75
-76.63
-57.62
-36.50
-14.42
7.55
28.31
47.45
64.18
77.48
86.30
89.72
87.83
81.96
74.43
67.00
62.04
59.93
59.95
60.64
60.19
57.35
51.84
44.36
34.35
24.54
15.34
6.82
-1.10
-9.04
-17.23
-25.38
-32.95
-43.10
-52.45
-61.62
-70.53
-78.12
-84.40
-88.58
-88.84
-83.08
-75.58
-61.10
-42.43
-22.80
-5.11
4.85
3.64
-7.82
-25.07
-49.75
-69.94
-85.05
-95.71
-103.21
-115.01
-136.34
-166.71
-158.29
-158.22
-152.76
-142.49
-129.99
-119.11
-122.23
-149.02
-200.70
-269.72
-351.02
-423.10
-478.32
-512.10
-477.04
-357.39
-178.36
10.46
170.00
267.04
327.06
367.10
398.35
427.41
452.90
470.96
480.60
482.59
472.61
453.61
422.59
382.11
340.22
300.89
267.05
241.37
224.90
213.83
207.00
198.50
185.18
166.64
140.01
103.52
58.96
11.40
-33.72
-69.87
-95.54
-111.40
-119.70
-124.83
-130.01
-135.28
-138.26
-136.25
-127.24
-112.05
-93.13
-74.38
-61.80
-61.99
-79.75
-115.88
-165.75
-219.70
-266.18
-295.25
-301.90
-287.06
-256.25
-216.69
-174.99
-136.08
-103.41
-79.39
-65.17
-59.86
-60.13
-60.88
-56.91
-44.96
-24.71
1.54
30.42
59.14
86.45
112.46
137.73
162.38
185.51
205.55
220.83
230.42
234.70
235.57
235.87
238.45
245.55
258.00
275.65
298.04
325.10
357.41
396.01
441.82
495.10
554.78
618.01
679.98
734.43
774.68
795.46
794.31
772.36
733.52
682.84
624.61
561.38
494.21
423.79
351.48
279.49
210.25
145.49
85.76
30.73
-19.99
-66.25
-107.36
-142.31
-170.55
-192.43
-209.22
-222.62
-234.17
-244.64
-253.89
-261.20
-265.82
-267.59
-267.13
-265.62
-264.34
-264.04
-264.81
-266.17
-267.71
-269.51
-272.53
-278.47
-289.11
-305.64
-328.14
-355.74
-386.80
-419.85
-454.09
-489.61
-527.38
-569.05
-616.66
-671.79
-734.21
-800.51
-863.27
-911.93
-935.73
-927.48
-886.35
-818.10
-732.57
-639.90
-547.33
-457.81
-371.38
-287.68
-208.01
-135.66
-74.26
-25.49
11.95
41.27
66.16
88.88
109.39
126.05
137.60
144.50
148.89
153.04
156.56
158.23
158.07
159.23
167.38
188.01
222.76
267.14
311.35
341.46
347.98
329.80
293.18
246.43
194.91
139.59
78.97
12.84
-59.50
-133.30
-199.36
-247.66
-272.72
-275.62
-262.32
-240.24
-215.45
-197.20
-190.16
-193.23
-201.27
-209.46
-216.06
-222.23
-230.01
-206.67
-138.32
-34.35
78.69
177.10
250.82
300.41
330.41
345.73
349.87
337.87
305.39
252.72
186.11
115.19
49.22
-5.58
-50.30
-85.32
-115.82
-143.89
-165.72
-173.37
-160.47
-126.93
-79.78
-29.22
15.42
46.14
61.32
65.28
65.23
67.00
73.51
79.59
82.07
80.05
73.62
64.36
54.37
45.16
36.89
28.56
19.03
8.79
-0.66
-6.25
-5.47
2.57
16.65
34.12
52.17
68.74
83.53
97.02
113.61
136.53
166.22
199.83
233.01
262.25
285.83
303.89
317.25
332.82
355.66
386.87
422.72
457.56
487.35
511.17
531.02
550.31
580.30
628.79
696.65
776.27
855.89
925.17
978.18
1013.45
984.22
866.43
667.24
426.18
190.84
-6.40
-153.75
-253.58
-315.09
-349.75
-358.32
-345.94
-318.67
-285.23
-254.62
-232.81
-222.02
-221.72
-229.89
-237.84
-237.17
-223.14
-197.21
-165.00
-132.89
-106.09
-87.96
-80.04
-78.37
-79.00
-79.63
-80.91
-84.99
-93.77
-108.20
-128.52
-154.72
-184.54
-215.79
-246.74
-275.43
-298.96
-313.66
-316.97
-309.42
-295.55
-281.88
-275.07
-279.91
-296.09
-318.47
-339.92
-355.08
-362.68
-365.15
-366.27
-368.61
-374.02
-381.34
-387.85
-391.07
-390.21
-385.71
-378.01
-366.21
-348.04
-323.13
-290.54
-249.72
-200.95
-146.33
-89.38
-33.93
16.96
75.97
145.08
217.94
284.27
337.43
376.43
403.46
420.62
428.91
428.68
419.31
401.53
376.97
347.91
315.80
280.94
243.47
204.56
166.69
130.81
101.69
82.27
72.82
70.02
67.97
60.70
44.67
20.16
-10.23
-41.45
-68.64
-88.49
-100.36
-105.83
-107.06
-105.29
-100.20
-90.89
-76.28
-56.59
-33.29
-8.92
14.18
35.04
54.46
74.17
95.00
115.87
133.24
142.53
140.07
124.85
99.28
68.53
38.64
14.76
-0.13
-5.39
-1.86
9.03
25.92
47.46
71.85
96.15
116.28
127.71
126.96
113.43
90.37
64.31
42.71
31.07
30.43
37.21
44.97
47.44
40.94
25.15
2.40
-23.40
-47.47
-64.40
-68.78
-56.80
-28.57
10.61
51.16
82.68
98.09
96.34
81.70
60.70
38.24
15.48
-9.07
-37.08
-67.73
-97.32
-121.16
-136.38
-143.85
-147.83
-154.03
-166.68
-186.82
-212.19
-238.66
-261.91
-278.65
-286.97
-286.12
-276.31
-258.78
-236.13
-212.18
-191.09
-176.00
-167.87
-165.20
-165.01
-164.22
-160.72
-153.61
-142.42
-126.46
-104.75
-76.48
-42.09
-3.78
34.81
69.70
97.99
118.81
133.34
143.84
152.31
159.62
165.33
168.34
167.76
163.37
155.59
144.90
131.46
115.08
95.79
74.26
51.96
30.76
12.23
-2.81
-14.31
-22.65
-28.34
-31.82
-33.73
-34.90
-36.09
-37.53
-38.39
-36.85
-30.69
-18.40
-0.02
22.49
45.88
66.55
81.83
90.60
93.31
91.43
86.77
80.92
75.13
70.49
67.90
67.70
69.24
70.87
70.44
66.54
59.58
51.99
47.14
47.57
53.64
63.35
73.66
82.49
90.07
98.97
112.49
132.62
158.53
186.46
211.13
227.61
233.10
227.79
214.45
197.14
179.37
162.68
146.11
126.83
101.79
69.44
30.76
-11.27
-52.98
-91.66
-126.54
-158.63
-189.75
-221.67
-255.84
-293.53
-335.68
-382.12
-430.23
-474.49
-507.36
-521.71
-513.72
-484.48
-439.61
-386.87
-333.43
-284.29
-241.91
-207.00
-179.10
-156.37
-134.97
-109.25
-73.45
-24.63
34.96
97.70
153.31
192.98
212.98
215.71
207.66
195.97
185.43
177.38
170.43
162.17
150.19
132.36
106.94
72.94
31.33
-13.90
-55.76
-86.10
-98.77
-92.55
-71.94
-45.43
-21.61
-5.57
2.56
6.42
10.45
17.32
26.28
33.79
35.85
30.46
18.58
3.07
-13.31
-29.34
-44.66
-59.18
-71.77
-80.09
-80.80
-70.95
-49.83
-19.55
15.60
51.45
84.77
113.69
137.15
155.25
168.49
177.21
181.26
175.55
156.56
125.04
86.15
45.76
8.60
-22.28
-44.88
-57.95
-61.43
-55.89
-44.04
-27.84
-9.67
9.33
29.04
50.12
73.58
100.54
132.84
172.18
219.60
269.34
314.53
347.13
359.92
348.91
314.79
263.07
201.73
137.98
75.39
14.31
-47.53
-112.27
-179.59
-245.76
-304.04
-347.04
-369.33
-369.23
-347.70
-307.40
-251.17
-181.94
-104.33
-26.23
41.04
85.37
98.60
81.17
43.05
0.44
-30.79
-41.41
-31.35
-8.21
17.23
35.90
43.38
39.97
29.02
14.62
0.10
-12.24
-21.06
-25.99
-27.79
-28.45
-30.50
-35.13
-41.52
-48.24
-54.18
-58.87
-62.27
-63.40
-60.68
-52.61
-38.75
-19.98
0.57
19.65
34.97
46.18
55.20
65.61
81.57
106.07
139.14
176.79
212.01
236.84
245.29
235.66
210.91
176.85
139.19
101.11
62.97
24.29
-14.05
-48.92
-76.16
-93.01
-99.77
-99.43
-95.76
-91.40
-87.39
-84.10
-83.03
-86.73
-97.24
-113.58
-130.58
-139.91
-133.27
-106.08
-60.11
-3.51
51.49
92.32
110.21
103.01
75.79
38.72
3.07
-22.99
-36.81
-40.80
-39.52
-36.33
-31.72
-23.98
-11.51
5.03
22.37
35.96
42.33
40.60
32.79
22.82
14.63
10.61
10.41
11.10
7.98
-3.79
-27.67
-64.34
-110.89
-161.41
-207.96
-242.60
-259.48
-256.32
-234.65
-198.97
-155.18
-108.97
-64.83
-25.45
8.56
38.76
68.31
100.67
137.66
177.78
215.85
244.65
257.83
252.77
231.67
199.99
163.39
124.94
84.57
40.83
-6.24
-53.16
-93.53
-120.43
-129.58
-121.52
-101.38
-76.86
-55.31
-41.51
-36.51
-38.35
-43.17
-47.14
-47.85
-44.66
-38.30
-29.85
-20.04
-8.98
3.54
18.25
35.13
53.41
71.94
90.34
109.90
133.21
162.74
198.72
238.80
277.00
305.04
315.07
302.86
270.00
223.36
172.35
125.18
88.10
63.72
51.95
51.20
59.51
74.84
94.60
115.36
124.88
114.81
84.28
41.58
-0.80
-33.51
-53.94
-64.74
-70.30
-74.34
-77.00
-76.71
-72.25
-64.14
-54.72
-46.87
-42.79
-43.43
-49.25
-57.89
-66.33
-71.47
-71.36
-66.09
-57.52
-48.55
-41.99
-40.88
-45.17
-52.19
-58.28
-60.88
-59.93
-57.52
-56.76
-60.80
-74.19
-100.15
-136.54
-179.95
-225.10
-265.50
-294.68
-307.98
-293.91
-252.17
-193.40
-133.57
-85.16
-52.16
-32.08
-20.25
-12.91
-7.91
-5.49
-4.76
-3.06
2.21
11.68
23.04
32.12
34.64
29.64
17.61
1.99
-11.83
-18.80
-16.31
-5.20
10.85
27.42
41.34
50.80
56.83
62.43
70.71
83.27
99.48
115.79
128.49
135.33
135.54
130.43
122.39
113.73
105.79
99.00
93.39
89.12
86.69
86.26
87.37
88.78
88.89
86.46
81.24
74.08
66.08
58.46
51.63
45.16
38.17
30.12
21.32
12.78
5.44
-1.16
-8.28
-17.76
-31.38
-50.37
-75.13
-105.23
-139.60
-176.30
-212.99
-245.35
-267.84
-275.44
-265.94
-241.29
-207.15
-170.78
-132.81
-94.76
-57.11
-19.52
18.15
54.68
87.53
114.07
133.00
144.91
150.98
153.31
153.57
152.61
150.22
145.86
139.22
130.52
120.37
109.03
97.55
86.26
75.48
64.98
54.46
43.72
32.90
22.17
11.60
1.63
-7.23
-14.14
-18.29
-18.32
-12.86
-1.45
13.80
29.11
40.49
44.77
42.63
35.27
25.57
17.25
13.46
13.99
17.48
22.65
28.53
34.02
37.13
35.82
28.69
15.74
-4.14
-29.54
-56.15
-78.69
-93.68
-101.38
-105.23
-110.77
-124.11
-153.89
-204.09
-271.26
-345.16
-412.68
-462.66
-489.01
-492.11
-456.11
-382.13
-287.06
-194.20
-119.22
-65.44
-29.12
-5.61
8.47
15.40
13.89
4.97
-7.31
-17.73
-22.78
-21.98
-17.04
-10.46
-2.29
5.39
12.02
19.01
28.58
41.77
57.58
73.60
87.94
99.24
104.92
103.93
97.22
87.20
76.59
67.82
58.18
47.17
34.84
20.54
4.19
-13.35
-30.41
-45.22
-56.32
-62.85
-63.76
-58.74
-48.57
-34.57
-18.52
-2.57
11.06
20.76
26.29
29.85
34.76
44.20
59.69
80.30
102.82
123.10
137.69
145.10
146.25
143.33
138.51
132.99
126.83
119.33
109.72
97.83
84.23
70.21
57.09
45.81
36.73
29.73
24.37
20.05
16.03
11.44
5.32
-3.26
-14.86
-29.16
-44.90
-59.94
-71.82
-78.40
-78.51
-72.31
-61.17
-47.33
-33.24
-20.96
-11.74
-5.80
-2.61
-1.20
-0.65
-0.40
-0.20
-0.09
-0.13
-0.38
-0.85
-1.58
-2.70
-4.32
-6.44
-8.82
-11.07
-12.78
-13.73
-13.94
-13.71
-13.55
-14.01
-15.56
-18.38
-22.20
-26.20
-29.04
-29.16
-25.20
-16.47
-3.17
13.69
32.74
52.82
73.29
94.18
115.82
138.49
161.99
185.62
208.37
229.34
248.08
264.65
279.42
292.81
305.21
316.98
328.62
340.41
351.85
361.08
364.71
358.63
339.45
305.90
259.56
204.41
145.26
86.07
28.95
-25.87
-79.31
-132.37
-185.63
-239.51
-294.55
-351.43
-410.33
-470.10
-527.72
-578.61
-617.66
-640.48
-644.53
-629.47
-596.92
-550.05
-492.91
-429.95
-365.31
-302.14
-241.86
-183.94
-126.12
-65.32
1.35
75.36
155.85
239.09
318.69
386.53
434.92
458.92
458.14
437.28
404.42
368.39
335.72
308.87
286.30
263.89
237.41
204.67
166.58
126.62
89.08
57.01
31.08
10.01
-7.98
-23.38
-34.74
-39.52
-35.73
-23.71
-6.43
11.57
26.21
35.44
39.73
41.08
41.51
41.93
42.02
40.77
37.22
31.26
23.59
15.52
8.34
2.65
-1.76
-5.71
-10.09
-15.33
-21.08
-26.35
-29.99
-31.19
-29.87
-26.65
-22.66
-19.06
-16.71
-15.88
-16.37
-17.71
-19.48
-21.58
-24.10
-27.25
-31.10
-35.47
-40.01
-44.40
-48.55
-52.62
-57.00
-61.98
-67.68
-74.00
-80.73
-87.59
-94.38
-100.81
-106.49
-110.92
-113.57
-114.09
-112.16
-107.72
-100.75
-91.29
-79.56
-66.08
-51.61
-36.99
-22.98
-10.28
0.48
8.65
13.73
15.63
14.97
12.96
11.08
10.33
10.83
11.83
12.32
11.77
10.40
8.98
8.21
8.31
8.91
9.50
9.79
9.94
10.25
10.78
11.17
10.73
8.86
5.50
1.28
-2.65
-5.11
-5.29
-2.98
1.41
7.09
13.15
18.67
23.03
26.03
27.75
28.62
29.28
30.39
32.54
36.22
41.62
48.52
56.08
63.00
68.02
70.70
71.83
73.21
76.72
83.14
91.53
99.34
103.63
102.44
95.69
85.22
74.15
65.88
63.19
67.62
78.81
94.36
110.12
121.35
124.46
118.61
106.04
90.91
77.27
67.11
59.75
52.77
43.80
31.96
18.18
4.31
-8.21
-19.22
-29.74
-41.12
-54.06
-68.13
-82.09
-94.58
-104.77
-112.54
-118.05
-121.33
-122.01
-119.58
-113.98
-106.03
-97.33
-89.60
-83.72
-79.21
-74.46
-67.66
-57.87
-45.54
-32.27
-19.93
-9.78
-2.17
3.18
6.57
7.92
6.84
3.15
-2.70
-9.58
-16.06
-21.04
-24.08
-25.51
-26.11
-26.72
-27.90
-29.77
-32.02
-34.09
-35.45
-35.88
-35.60
-35.32
-35.81
-37.44
-39.72
-41.37
-40.81
-36.90
-29.55
-19.76
-9.21
0.57
8.73
15.14
20.04
23.59
25.59
25.65
23.68
20.07
15.84
12.13
9.70
8.61
8.19
7.48
5.70
2.61
-1.42
-5.74
-9.82
-13.50
-16.92
-20.35
-23.83
-27.11
-29.62
-30.74
-30.10
-27.85
-24.47
-20.51
-16.31
-11.75
-6.47
-0.07
7.62
16.25
24.93
32.54
38.16
41.40
42.50
42.29
41.82
42.41
44.99
49.83
56.55
64.25
71.86
78.35
82.93
85.09
85.27
84.07
82.08
79.77
77.52
75.69
74.57
74.30
74.76
76.72
80.64
86.52
93.90
102.00
110.01
117.22
122.82
125.93
126.96
126.19
123.63
119.11
112.53
104.38
95.75
88.00
74.23
51.13
19.33
-16.40
-49.68
-75.88
-93.42
-103.10
-106.77
-106.42
-102.37
-94.90
-84.79
-73.33
-62.15
-52.58
-45.36
-40.61
-37.94
-35.49
-32.09
-27.37
-21.66
-15.76
-10.48
-6.25
-3.07
-0.60
2.38
6.85
12.93
20.12
27.43
33.79
38.31
40.39
39.60
35.63
30.69
25.49
20.08
14.12
7.01
-1.81
-12.76
-26.02
-41.12
-56.83
-71.58
-83.34
-90.23
-91.30
-86.90
-78.57
-68.53
-58.75
-50.37
-43.91
-39.08
-35.45
-32.68
-30.68
-29.37
-28.56
-27.82
-26.67
-24.98
-22.88
-20.73
-18.94
-17.80
-17.29
-17.18
-17.13
-16.94
-16.70
-16.60
-16.85
-17.45
-18.15
-18.56
-18.34
-17.36
-15.76
-13.87
-11.96
-10.23
-8.77
-7.63
-6.96
-6.94
-7.66
-9.07
-10.89
-12.78
-14.46
-15.89
-17.22
-18.67
-20.35
-22.24
-24.18
-26.00
-27.59
-28.94
-30.06
-31.01
-31.78
-32.33
-32.50
-32.08
-30.90
-28.89
-26.20
-23.15
-20.16
-17.57
-15.55
-14.08
-12.98
-12.09
-11.25
-10.36
-9.40
-8.36
-7.33
-6.45
-5.88
-5.95
-6.81
-8.37
-10.32
-12.25
-13.85
-14.86
-15.23
-15.01
-14.57
-14.34
-14.58
-15.33
-16.44
-17.57
-18.33
-18.38
-17.49
-16.08
-14.63
-13.43
-12.57
-12.01
-11.70
-11.57
-11.53
-11.49
-12.57
-15.53
-20.25
-25.89
-31.46
-36.29
-40.09
-42.79
-44.40
-47.33
-53.21
-62.22
-73.39
-85.79
-99.23
-114.05
-130.45
-148.08
-169.73
-196.29
-225.87
-254.56
-278.68
-296.53
-308.28
-315.10
-318.10
-322.57
-331.00
-341.80
-350.42
-352.91
-348.28
-338.41
-326.70
-286.07
-206.52
-97.36
17.74
117.13
190.92
239.48
268.07
282.90
289.34
286.47
273.91
253.64
230.16
207.85
189.42
176.02
167.77
164.28
161.14
155.30
145.71
135.08
126.31
121.00
119.58
121.71
126.81
131.89
134.68
134.14
130.24
122.76
111.16
95.41
76.52
56.57
36.86
18.58
2.70
-10.07
-19.49
-26.57
-31.70
-35.02
-36.49
-36.57
-35.72
-34.08
-31.36
-27.15
-21.24
-13.64
-4.94
3.86
11.65
17.47
20.80
21.55
20.02
16.80
12.76
8.70
5.25
2.65
0.69
-1.11
-3.25
-6.01
-9.25
-12.52
-15.43
-17.96
-20.45
-23.45
-27.22
-31.52
-35.49
-38.01
-38.13
-35.46
-30.31
-23.53
-16.16
-9.06
-2.80
2.36
6.27
8.84
9.88
9.25
6.92
3.12
-1.72
-7.00
-12.12
-16.66
-20.44
-23.54
-26.13
-28.42
-30.50
-32.41
-34.16
-35.86
-37.66
-39.61
-41.49
-42.73
-42.54
-40.11
-34.92
-27.01
-16.98
-5.81
5.40
15.73
24.61
31.74
37.01
40.36
41.71
41.04
38.54
34.70
30.24
25.94
22.44
19.93
18.28
17.07
15.81
14.12
11.75
8.52
4.28
-0.90
-6.60
-11.81
-15.23
-15.61
-12.44
-6.18
1.77
9.64
15.94
19.91
21.55
21.37
20.01
18.06
16.01
14.32
13.43
13.59
14.72
16.42
18.25
20.03
22.01
24.74
28.77
34.24
40.76
47.60
54.06
59.77
64.84
69.67
74.73
80.34
86.61
93.60
101.33
109.78
118.68
127.42
135.10
140.85
144.17
145.03
143.73
140.45
134.95
126.64
114.97
99.93
82.44
64.22
47.21
32.95
22.09
14.29
8.50
3.50
-1.77
-7.91
-14.98
-22.55
-29.73
-35.29
-37.85
-36.18
-29.56
-18.03
-2.52
15.30
33.40
49.84
63.27
73.09
79.56
83.52
86.07
88.28
90.93
94.42
98.78
103.77
108.86
113.39
116.70
118.20
117.62
114.99
110.67
105.22
99.25
93.34
87.99
83.64
80.63
79.27
79.65
81.64
84.81
88.50
91.91
94.31
95.09
93.84
90.43
85.00
77.95
69.97
61.87
54.38
48.01
42.90
38.87
35.58
32.61
29.57
26.10
21.74
16.01
8.58
-0.54
-10.77
-20.95
-29.64
-35.50
-37.79
-36.59
-32.81
-27.84
-23.18
-20.08
-19.28
-21.00
-25.06
-31.00
-38.38
-46.69
-55.44
-64.05
-71.91
-78.45
-83.17
-85.82
-86.47
-85.80
-84.70
-84.03
-84.46
-86.42
-90.09
-95.36
-101.76
-108.52
-115.15
-121.03
-125.53
-128.24
-129.26
-129.14
-128.68
-128.51
-128.83
-130.15
-132.52
-135.61
-139.01
-142.68
-147.07
-152.66
-159.44
-166.62
-173.62
-179.34
-182.29
-181.23
-175.65
-165.88
-152.62
-136.47
-112.36
-78.70
-38.08
3.51
39.84
67.34
85.70
96.68
102.61
105.21
104.48
99.43
89.89
77.43
65.52
58.34
58.87
67.14
80.09
91.89
97.29
93.78
81.99
64.78
45.23
25.25
5.43
-13.38
-30.11
-42.18
-43.01
-29.25
-4.66
20.54
35.17
32.89
15.01
-12.43
-41.33
-64.78
-79.74
-86.89
-88.55
-86.72
-85.06
-81.57
-74.51
-63.34
-48.91
-33.45
-19.31
-7.54
2.39
11.82
22.33
33.88
45.16
54.03
59.05
58.50
51.82
40.11
25.81
12.18
1.50
-5.30
-8.58
-9.70
-10.07
-10.13
-9.19
-6.22
-0.66
6.44
12.94
16.67
16.41
12.43
6.48
0.84
-2.81
-3.88
-3.17
-2.03
-1.60
-2.22
-3.49
-4.44
-4.15
-2.28
0.88
4.44
7.42
9.20
9.67
9.13
8.09
6.99
6.09
5.59
5.76
7.05
10.07
15.35
23.12
33.06
44.31
55.48
65.02
71.43
73.61
70.96
63.49
51.81
37.01
20.67
4.56
-9.58
-20.53
-27.81
-31.81
-33.61
-34.49
-35.61
-37.79
-41.41
-46.56
-52.91
-59.66
-65.48
-68.69
-67.76
-61.99
-51.82
-38.83
-25.26
-13.26
-4.32
1.12
3.58
4.27
4.51
5.16
6.28
7.17
6.71
4.05
-0.87
-7.06
-12.84
-16.53
-17.16
-14.92
-10.98
-7.01
-4.53
-4.36
-6.43
-9.83
-13.04
-14.46
-12.82
-7.60
0.84
11.38
22.49
32.63
40.59
45.65
47.51
46.25
42.20
35.88
28.02
19.61
11.74
5.45
1.42
-0.20
0.15
1.65
3.41
4.73
5.29
5.08
4.18
2.59
0.12
-3.56
-8.67
-15.04
-21.99
-28.29
-32.45
-33.05
-29.26
-21.13
-9.71
3.23
15.70
26.00
33.15
36.96
37.79
36.27
32.95
28.30
22.70
16.54
10.28
4.37
-0.94
-5.58
-9.69
-13.42
-16.90
-20.11
-22.97
-25.42
-27.55
-29.61
-31.97
-35.03
-38.99
-43.73
-48.60
-52.41
-53.68
-51.08
-44.00
-32.86
-19.08
-4.60
8.72
19.67
27.78
33.13
35.95
36.43
34.69
30.93
25.74
19.99
14.60
10.27
7.09
4.65
2.29
-0.52
-3.92
-7.60
-11.03
-13.77
-15.69
-17.02
-18.28
-20.05
-22.87
-27.04
-32.49
-38.69
-44.54
-48.54
-49.19
-45.47
-37.29
-25.70
-12.50
0.30
11.11
19.11
24.21
26.72
27.00
25.28
21.73
16.57
10.27
3.56
-2.75
-8.01
-11.98
-14.77
-16.80
-18.63
-20.76
-23.56
-27.11
-31.33
-35.99
-40.93
-45.91
-50.70
-55.34
-60.15
-65.64
-72.20
-79.87
-88.19
-96.32
-102.84
-106.32
-105.98
-102.04
-95.60
-88.13
-80.97
-75.08
-71.12
-68.83
-67.46
-66.52
-66.02
-66.30
-67.53
-69.40
-71.07
-71.49
-68.56
-59.64
-42.63
-16.58
17.86
58.43
101.53
144.20
179.90
202.78
211.63
210.56
205.85
201.93
199.92
198.52
195.95
190.94
184.31
177.77
172.08
166.68
160.21
151.62
140.84
129.48
118.17
108.39
101.59
97.63
95.63
94.55
93.78
93.20
93.03
93.23
94.16
96.10
97.21
95.74
90.56
81.26
67.38
50.05
29.74
7.29
-16.31
-42.56
-71.94
-103.49
-135.35
-166.21
-196.03
-226.08
-257.29
-289.71
-324.97
-361.80
-395.85
-421.51
-434.51
-433.43
-420.09
-398.27
-353.42
-284.34
-201.71
-122.14
-57.90
-12.41
17.38
36.35
48.90
57.86
61.87
60.79
56.59
52.59
51.45
54.31
59.60
66.37
73.40
77.42
77.17
73.91
70.48
69.48
72.74
80.71
93.13
108.96
125.13
138.99
149.05
155.44
156.76
153.76
148.41
143.15
139.16
134.85
127.33
113.98
94.20
70.19
46.82
29.34
21.44
23.62
33.10
45.51
56.62
63.51
64.81
60.67
51.72
38.78
22.76
4.89
-13.13
-29.36
-41.98
-49.60
-51.28
-46.89
-37.13
-23.55
-8.46
5.59
16.45
23.13
26.02
26.64
26.64
26.67
25.85
22.03
12.80
-3.26
-25.72
-52.09
-78.48
-100.39
-113.60
-114.74
-101.99
-75.73
-39.20
1.71
39.48
66.93
79.45
76.35
60.73
37.81
12.82
-10.72
-31.32
-48.63
-62.30
-71.31
-74.30
-70.44
-60.18
-45.58
-29.86
-16.37
-7.59
-4.29
-5.46
-8.95
-12.56
-15.02
-16.41
-17.88
-20.65
-25.03
-30.01
-33.82
-35.06
-33.71
-31.45
-30.82
-34.05
-41.89
-53.43
-66.59
-79.18
-89.63
-97.44
-102.97
-106.92
-109.94
-112.25
-113.95
-115.21
-116.59
-119.31
-124.75
-133.64
-145.17
-156.96
-165.78
-169.13
-166.37
-159.02
-149.86
-141.44
-134.91
-129.89
-125.32
-120.43
-115.28
-110.34
-105.48
-99.38
-89.79
-74.87
-54.71
-32.02
-11.42
2.35
6.34
0.66
-11.70
-25.95
-37.42
-42.95
-41.51
-33.80
-21.37
-5.65
12.66
33.58
57.37
83.68
110.92
136.06
155.36
165.80
166.74
160.72
152.76
148.24
150.43
158.74
168.98
175.19
172.50
159.36
137.96
113.01
89.49
70.73
58.01
51.21
49.53
51.61
55.01
55.96
50.29
35.36
11.90
-15.38
-39.42
-53.89
-55.94
-47.37
-33.23
-19.15
-8.89
-3.48
-2.14
-3.73
-7.87
-14.63
-23.79
-34.14
-43.59
-49.93
-51.65
-48.56
-41.69
-32.63
-22.79
-12.88
-3.04
6.69
15.76
23.01
27.11
27.44
24.89
21.99
22.38
29.52
45.61
70.82
103.41
139.98
175.97
206.24
225.78
231.19
222.02
201.80
177.44
157.13
147.12
149.15
159.81
172.17
179.12
176.23
163.11
142.52
118.24
93.28
69.34
47.61
29.38
16.06
7.90
3.10
-2.05
-11.42
-26.49
-45.03
-61.94
-72.12
-73.43
-68.10
-61.49
-59.15
-64.01
-75.33
-89.85
-103.89
-115.16
-123.17
-128.57
-132.00
-133.59
-133.15
-130.74
-127.00
-123.22
-120.92
-121.34
-125.14
-132.23
-141.80
-152.51
-162.68
-170.77
-175.64
-176.81
-174.26
-168.11
-158.29
-144.29
-125.50
-101.53
-72.63
-39.57
-3.55
33.83
70.37
103.12
128.72
144.41
149.54
146.50
140.27
136.56
139.23
148.50
160.79
170.60
173.04
165.93
150.24
129.06
105.87
83.29
62.96
45.84
32.45
22.46
14.31
5.15
-8.28
-27.90
-52.96
-79.85
-103.39
-118.87
-123.79
-118.38
-104.94
-86.57
-66.04
-45.36
-25.81
-8.25
6.89
19.54
29.90
38.23
44.71
49.50
52.82
55.00
56.20
56.08
53.72
48.05
38.51
25.65
11.06
-3.24
-15.55
-24.94
-31.02
-33.49
-31.73
-25.07
-13.37
2.34
19.80
36.36
50.04
60.26
67.91
74.56
81.58
89.61
98.59
108.30
118.76
130.35
143.34
157.28
170.64
180.87
185.12
181.14
168.09
146.83
119.64
89.78
60.81
36.13
18.58
10.00
10.51
17.86
27.07
31.30
23.88
0.86
-36.96
-83.85
-130.96
-169.53
-193.93
-203.01
-199.68
-188.86
-175.29
-162.02
-150.22
-139.74
-130.14
-121.19
-112.95
-105.34
-97.77
-88.96
-77.42
-62.26
-44.07
-25.16
-8.92
1.54
4.86
2.11
-3.65
-8.67
-10.13
-6.92
0.41
10.41
21.67
33.35
45.06
56.63
67.81
78.23
87.43
94.83
99.62
100.88
97.94
90.80
80.56
69.20
58.98
51.52
47.17
45.01
43.54
41.63
39.08
36.72
35.82
37.34
41.37
47.29
54.19
61.21
67.51
71.85
72.42
67.11
54.57
35.41
12.77
-8.36
-22.93
-27.91
-23.55
-13.25
-1.95
5.84
7.60
3.05
-6.42
-18.77
-31.92
-43.94
-53.01
-57.60
-56.85
-51.05
-41.87
-31.96
-24.13
-20.45
-21.65
-27.00
-34.69
-42.49
-48.17
-50.06
-47.15
-39.26
-27.06
-11.89
4.62
21.04
36.43
50.51
63.41
75.27
85.81
94.33
99.98
102.36
101.86
99.73
97.60
96.67
97.18
98.20
98.09
95.10
88.08
76.64
61.05
41.96
20.20
-3.08
-26.38
-47.86
-65.79
-78.93
-86.90
-90.10
-89.47
-86.02
-80.69
-74.23
-67.26
-60.24
-53.47
-46.93
-40.41
-33.60
-26.34
-18.73
-11.12
-4.02
1.99
6.28
8.27
7.61
4.36
-0.91
-7.24
-13.62
-19.30
-23.99
-27.84
-31.36
-35.22
-40.14
-46.65
-54.91
-64.43
-74.02
-81.93
-86.33
-85.74
-79.42
-67.47
-50.72
-30.47
-8.23
14.48
36.40
56.65
74.80
91.02
105.44
117.99
128.30
135.94
140.79
143.21
143.89
143.43
142.15
139.62
134.64
125.68
111.72
93.01
71.49
50.42
33.44
23.99
23.67
31.67
45.18
60.47
74.21
84.24
89.77
91.08
91.03
92.83
99.20
111.72
130.68
155.36
184.28
215.33
245.98
277.09
309.38
342.10
372.47
396.58
411.25
415.34
409.81
397.11
385.71
383.47
394.51
417.79
448.50
481.14
511.91
539.35
563.68
592.48
632.31
684.26
742.73
798.26
842.51
871.92
888.14
847.63
725.22
520.12
259.39
-14.14
-262.18
-463.27
-612.44
-715.02
-775.24
-801.78
-800.41
-776.81
-739.00
-696.61
-658.00
-628.37
-609.91
-600.71
-593.04
-578.53
-552.49
-515.27
-471.09
-425.12
-381.31
-341.82
-307.37
-275.02
-240.84
-202.80
-161.76
-120.91
-83.96
-53.76
-31.86
-18.66
-12.68
-11.49
-13.35
-17.73
-25.28
-37.36
-55.86
-83.23
-121.96
-172.81
-233.17
-296.40
-352.63
-391.27
-403.90
-386.71
-341.72
-276.26
-201.20
-128.94
-71.13
-36.59
-30.21
-50.64
-89.98
-135.63
-174.38
-196.56
-200.20
-190.33
-176.03
-168.47
-175.84
-201.04
-241.66
-291.55
-341.79
-384.92
-414.70
-426.61
-421.72
-404.00
-378.41
-349.29
-319.60
-289.45
-260.77
-235.32
-214.15
-201.21
-199.00
-206.66
-220.01
-233.66
-241.68
-244.35
-244.53
-221.50
-163.07
-69.10
46.98
164.70
253.01
311.63
346.03
362.47
367.03
365.15
359.27
351.33
342.80
334.09
326.44
317.25
304.39
287.87
266.55
240.00
209.45
177.70
148.59
127.74
117.50
118.51
129.54
145.17
157.81
160.71
150.37
127.74
98.76
69.37
44.33
25.40
10.10
-6.05
-26.40
-51.17
-77.20
-99.21
-113.28
-117.68
-112.95
-101.41
-86.04
-69.47
-54.00
-41.68
-33.87
-30.79
-30.49
-28.96
-21.78
-6.77
14.15
34.73
46.53
42.49
19.85
-18.82
-67.17
-117.98
-165.84
-208.12
-244.30
-274.40
-297.97
-314.12
-322.31
-322.98
-317.48
-307.33
-293.47
-275.93
-254.12
-227.59
-196.65
-162.53
-127.10
-92.29
-59.70
-30.20
-3.70
20.90
45.49
72.17
102.46
136.46
172.57
207.98
239.81
266.29
287.65
306.06
324.74
346.73
374.05
407.39
446.14
488.39
530.77
568.50
595.97
608.19
602.54
579.89
544.36
501.73
457.19
413.68
371.68
330.27
288.71
247.38
207.57
170.41
135.75
101.91
66.36
27.03
-16.65
-63.39
-110.69
-155.97
-197.68
-235.95
-272.32
-309.06
-348.52
-392.71
-442.84
-498.63
-557.30
-613.04
-657.51
-681.96
-680.14
-650.97
-599.27
-534.19
-465.99
-402.88
-349.23
-305.96
-272.29
-247.45
-231.36
-223.96
-223.94
-227.90
-230.82
-227.52
-214.33
-190.49
-158.12
-120.99
-82.65
-45.24
-9.32
25.35
58.54
88.82
113.73
130.99
139.83
141.63
139.45
136.85
136.49
139.50
145.89
155.19
167.17
182.03
199.84
220.08
241.23
261.13
277.56
288.98
294.83
295.57
292.18
285.65
276.80
266.09
253.78
239.97
224.98
209.31
193.60
178.48
164.22
150.75
137.69
124.96
113.24
104.18
99.86
101.83
109.94
121.89
133.86
141.73
142.62
135.72
122.20
104.28
84.03
62.63
40.30
16.85
-7.64
-32.35
-55.74
-76.16
-92.46
-104.43
-112.90
-119.39
-125.42
-131.83
-138.47
-144.37
-148.35
-149.79
-148.93
-146.86
-144.98
-144.30
-145.15
-147.08
-149.18
-150.44
-150.02
-147.26
-141.69
-132.87
-120.44
-104.19
-84.24
-61.25
-36.43
-11.45
11.81
31.57
46.61
56.43
61.38
62.45
60.86
57.66
53.42
48.20
41.81
34.12
25.27
15.73
6.03
-3.46
-12.60
-21.41
-29.84
-37.73
-44.79
-50.95
-56.40
-61.59
-66.86
-72.10
-76.55
-78.96
-78.10
-73.25
-64.52
-52.81
-39.43
-25.72
-12.74
-1.25
8.23
15.27
19.64
21.27
20.46
17.78
13.98
9.85
5.98
2.77
0.30
-1.33
-1.85
-0.62
3.36
11.07
23.09
39.10
57.84
77.22
94.90
108.81
117.61
120.85
118.82
112.51
103.34
93.09
83.65
76.67
73.13
73.02
75.31
78.36
80.64
81.34
80.67
79.66
79.58
81.21
84.50
88.52
91.93
93.58
93.02
90.54
87.04
83.51
80.66
78.60
76.88
74.76
71.53
66.90
61.13
55.12
50.16
47.71
49.04
54.86
65.07
78.77
94.44
110.53
126.10
141.31
157.47
176.55
200.28
229.23
262.16
295.99
326.36
348.83
360.03
358.68
345.85
324.52
298.55
271.51
245.88
222.79
202.38
184.20
167.72
152.36
137.48
122.31
106.10
88.38
69.32
49.84
31.37
15.41
3.02
-5.56
-11.09
-14.98
-18.94
-24.40
-32.19
-42.43
-54.70
-68.27
-82.60
-97.44
-112.97
-129.86
-149.10
-171.72
-198.29
-228.29
-259.74
-289.26
-312.78
-326.82
-329.80
-322.78
-309.29
-294.17
-281.86
-274.97
-273.52
-275.32
-276.98
-275.17
-267.73
-254.16
-235.54
-213.95
-191.73
-170.80
-152.24
-136.41
-123.21
-112.47
-104.09
-98.10
-94.43
-92.86
-93.06
-94.67
-97.28
-100.37
-103.35
-105.56
-106.98
-108.37
-111.37
-117.64
-127.42
-138.28
-144.93
-140.92
-121.61
-87.06
-42.87
1.59
36.89
57.30
62.63
57.33
47.68
38.63
32.20
27.84
24.14
20.42
17.23
15.52
15.48
15.83
14.15
8.01
-3.86
-20.86
-40.83
-60.71
-77.96
-91.39
-101.48
-109.82
-118.03
-126.95
-136.27
-144.91
-151.93
-157.20
-161.21
-164.28
-165.65
-163.38
-155.29
-140.04
-118.07
-91.31
-62.34
-33.45
-6.41
17.20
35.48
46.50
49.10
43.97
33.85
22.55
13.29
7.42
4.30
2.39
0.57
-1.17
-2.19
-2.21
-2.08
-3.71
-9.40
-20.77
-38.17
-60.50
-85.26
-108.76
-126.41
-133.42
-126.26
-104.34
-71.14
-33.93
-1.72
17.83
21.21
10.18
-9.18
-29.04
-42.92
-47.56
-43.26
-32.73
-19.24
-5.24
8.17
20.80
32.62
43.13
51.47
56.90
59.30
59.39
58.30
56.95
55.60
53.91
51.47
48.28
44.88
41.99
39.94
38.34
36.19
32.37
26.12
17.35
6.58
-5.30
-17.12
-27.56
-35.26
-39.00
-37.86
-31.40
-19.68
-3.18
17.27
40.53
65.14
89.32
111.26
129.39
142.73
151.01
154.55
154.02
150.24
144.03
136.23
127.71
119.28
111.53
104.82
99.24
94.86
91.81
90.22
90.07
90.89
91.59
90.52
85.83
75.91
59.90
38.13
12.29
-14.55
-38.38
-55.20
-62.02
-57.88
-44.28
-24.61
-2.94
17.40
34.81
49.43
62.34
74.50
85.88
95.36
101.35
102.47
98.18
89.00
76.18
61.23
45.51
29.89
14.65
-0.38
-15.55
-31.09
-46.86
-62.33
-76.82
-89.86
-101.46
-112.02
-121.93
-131.11
-138.77
-143.61
-144.22
-139.59
-129.04
-112.02
-87.93
-56.55
-18.83
22.38
62.22
94.99
115.92
122.88
117.01
101.94
82.09
60.89
40.04
19.79
-0.01
-18.94
-35.68
-48.44
-55.72
-56.96
-52.89
-45.32
-36.84
-30.34
-28.52
-33.28
-44.96
-61.69
-79.31
-92.25
-95.31
-85.54
-63.45
-32.70
1.53
34.58
63.89
89.05
110.89
130.10
146.42
158.75
165.90
167.31
163.30
154.91
143.34
129.62
114.46
98.20
81.03
63.10
44.82
26.91
10.31
-4.19
-16.32
-26.65
-36.42
-46.97
-59.01
-72.18
-85.05
-95.55
-101.62
-101.52
-94.07
-78.67
-55.52
-25.89
7.64
41.28
70.64
91.77
102.15
101.22
90.39
72.32
50.08
26.48
3.74
-16.41
-32.58
-43.82
-49.66
-50.39
-46.96
-40.84
-33.82
-27.73
-24.42
-25.37
-31.27
-41.43
-53.56
-64.10
-69.43
-67.15
-57.05
-41.04
-22.05
-2.72
15.65
33.09
50.17
67.01
82.78
95.91
104.83
108.69
107.61
102.49
94.41
84.29
72.67
59.93
46.46
32.83
19.69
7.64
-2.90
-11.69
-18.60
-23.59
-26.82
-28.79
-30.39
-32.69
-36.33
-41.05
-45.51
-47.82
-46.40
-40.56
-30.60
-17.32
-1.55
15.78
33.20
48.27
57.80
58.94
50.72
34.86
15.40
-2.86
-16.41
-24.04
-26.82
-27.02
-26.95
-28.34
-32.40
-39.82
-50.64
-63.73
-76.51
-85.43
-87.25
-80.50
-66.30
-48.12
-30.17
-15.72
-5.89
0.29
4.82
9.36
14.46
19.60
23.87
26.81
28.63
30.00
31.36
32.53
32.75
31.17
27.41
21.86
15.61
9.84
5.32
2.12
-0.29
-2.54
-4.82
-6.73
-7.58
-6.93
-5.20
-3.48
-2.95
-4.06
-6.16
-7.69
-7.03
-3.15
4.01
13.69
24.77
35.94
45.73
52.46
54.50
50.86
41.84
29.28
16.03
4.96
-2.10
-4.81
-4.00
-1.01
2.99
7.26
11.39
15.11
18.21
20.59
22.23
23.07
22.75
20.57
15.88
8.63
-0.23
-8.85
-15.18
-17.80
-16.49
-12.07
-5.79
1.28
8.50
15.29
20.70
23.27
21.51
14.78
4.00
-8.37
-19.14
-25.57
-26.45
-22.39
-15.44
-8.10
-2.30
1.25
3.03
4.14
5.58
7.60
9.77
11.40
12.18
12.65
13.91
16.92
21.54
26.04
27.42
22.62
9.98
-9.79
-33.48
-56.34
-73.42
-80.91
-76.99
-62.11
-38.74
-10.94
16.56
39.36
54.41
60.68
59.12
52.01
41.90
30.80
19.88
9.73
0.93
-5.67
-9.02
-8.38
-3.88
3.11
10.17
14.28
12.81
4.47
-9.88
-27.02
-42.09
-50.12
-47.87
-35.07
-14.65
8.43
29.03
43.56
50.85
51.83
48.56
43.06
36.61
29.77
22.85
16.45
11.56
9.22
9.89
12.84
16.35
18.24
16.96
12.43
6.15
0.48
-2.60
-2.62
-0.74
1.03
1.15
-0.35
-1.82
-0.93
3.82
12.03
21.33
28.28
29.81
24.38
12.45
-3.72
-20.61
-34.03
-39.92
-35.30
-19.35
5.78
35.12
62.11
80.74
87.47
82.30
68.33
50.21
32.38
17.83
7.76
2.05
-0.18
-0.12
0.94
1.67
0.88
-2.07
-6.95
-12.61
-17.20
-18.92
-16.84
-11.48
-4.96
-0.23
0.00
-5.59
-16.38
-30.01
-43.42
-53.93
-60.25
-62.65
-62.56
-61.80
-61.67
-62.57
-63.99
-65.08
-65.09
-63.78
-61.23
-57.51
-52.22
-44.42
-32.96
-17.12
2.69
24.70
46.05
63.69
75.34
80.21
79.20
74.41
68.27
62.61
58.05
53.88
48.46
40.02
27.39
10.53
-9.39
-30.36
-50.08
-66.45
-78.02
-84.13
-84.96
-81.37
-74.63
-66.09
-56.73
-46.88
-36.16
-23.81
-9.32
7.00
23.73
38.65
49.50
54.93
55.06
51.39
46.20
41.72
39.54
40.41
44.30
50.37
56.74
60.48
58.12
46.80
25.82
-2.42
-32.70
-58.57
-74.55
-77.91
-69.22
-51.42
-28.53
-4.33
18.07
36.14
47.82
51.77
47.96
38.09
25.34
13.46
5.55
3.00
5.27
10.38
15.92
20.09
22.19
22.58
22.06
21.25
20.09
17.91
13.82
7.32
-1.37
-11.29
-21.08
-29.46
-35.61
-39.29
-40.83
-40.94
-40.70
-41.43
-44.43
-50.56
-59.75
-70.67
-81.05
-88.33
-90.61
-87.31
-79.15
-67.58
-53.97
-39.06
-23.02
-5.88
11.86
29.01
44.00
55.47
62.82
66.34
67.02
65.97
63.97
61.12
56.94
50.71
41.95
30.78
18.08
5.27
-6.07
-14.73
-20.19
-22.61
-22.62
-20.89
-17.91
-13.86
-8.83
-3.06
2.90
8.21
11.99
13.64
13.04
10.59
7.08
3.48
0.70
-0.57
0.07
2.67
6.98
12.43
18.25
23.57
27.54
29.48
29.07
26.32
21.65
15.67
9.12
2.59
-3.55
-9.20
-14.36
-18.97
-22.86
-25.73
-27.38
-27.90
-27.74
-27.61
-28.19
-29.86
-32.53
-35.60
-38.27
-39.73
-39.42
-37.13
-32.95
-27.20
-20.38
-13.14
-6.25
-0.50
3.43
5.20
4.92
3.12
0.58
-1.94
-3.89
-5.12
-5.85
-6.66
-8.33
-11.60
-16.87
-23.90
-31.61
-38.34
-42.31
-42.35
-38.34
-31.31
-22.98
-15.07
-8.63
-3.78
0.06
3.72
7.71
12.06
16.42
20.38
23.77
26.77
29.71
32.83
35.93
38.46
39.65
38.93
36.25
32.14
27.54
23.36
20.12
17.77
15.81
13.54
10.38
6.10
0.82
-5.06
-11.06
-16.80
-22.03
-26.71
-30.92
-34.78
-38.28
-41.24
-43.25
-43.81
-42.46
-39.02
-33.72
-27.19
-20.38
-14.29
-9.69
-6.81
-5.28
-4.16
-2.11
2.16
9.40
19.35
30.34
39.52
43.57
39.92
28.05
10.13
-9.34
-24.96
-32.21
-28.94
-15.91
3.75
25.71
45.55
59.77
66.12
63.92
54.06
38.82
21.41
5.20
-7.19
-14.46
-16.64
-14.80
-10.39
-4.80
0.80
5.44
8.28
8.79
6.76
2.52
-3.23
-9.57
-15.60
-20.56
-23.80
-24.66
-22.62
-17.50
-9.87
-1.21
6.33
10.56
10.13
5.06
-3.21
-12.39
-20.24
-25.31
-27.28
-26.74
-24.70
-22.06
-19.39
-16.84
-14.25
-11.19
-7.08
-1.42
5.84
14.07
21.84
27.29
28.85
25.95
19.43
11.32
4.10
-0.31
-1.15
1.02
4.88
9.10
12.86
15.96
18.30
19.45
18.41
14.01
5.59
-6.30
-19.74
-31.97
-40.22
-42.57
-38.44
-28.55
-14.59
1.01
15.41
25.71
29.43
25.26
13.68
-2.95
-20.81
-35.79
-44.78
-46.50
-41.81
-33.05
-23.07
-14.23
-7.91
-4.65
-4.74
-8.74
-17.15
-29.55
-43.48
-54.35
-56.80
-47.10
-25.42
3.48
31.81
51.98
59.72
55.53
43.86
30.53
20.12
14.45
12.90
13.72
15.48
17.71
20.71
24.83
29.88
35.02
39.03
40.82
39.94
36.78
32.34
27.92
24.60
22.95
22.89
23.93
25.43
26.98
28.57
30.56
33.58
38.13
44.34
51.78
59.66
67.12
73.65
79.32
84.50
89.38
93.57
96.21
96.82
96.21
96.68
101.18
111.87
128.70
149.39
170.69
190.25
207.68
224.08
240.26
255.09
265.28
266.94
258.09
240.13
217.53
195.48
177.07
161.96
146.63
126.34
97.35
58.87
14.02
-30.30
-64.92
-81.08
-73.78
-44.34
-0.75
44.89
81.10
101.23
105.44
98.98
88.31
77.27
65.40
49.21
25.07
-7.98
-47.00
-86.01
-118.22
-138.53
-145.38
-141.44
-132.60
-125.71
-126.19
-136.20
-154.44
-177.54
-201.99
-225.69
-248.29
-270.36
-292.02
-312.31
-329.35
-341.29
-347.35
-348.04
-344.80
-339.20
-332.14
-323.73
-313.48
-300.62
-284.28
-263.48
-237.19
-204.64
-165.83
-121.71
-74.25
-25.73
21.82
67.26
110.41
151.77
192.00
231.21
268.46
301.42
326.71
340.72
341.06
327.72
303.44
272.89
240.81
210.33
182.12
154.93
126.79
96.32
63.27
28.28
-7.57
-43.04
-76.72
-106.97
-131.97
-150.15
-160.65
-163.57
-159.96
-151.51
-140.01
-127.08
-114.11
-102.48
-93.74
-89.65
-91.72
-100.69
-115.89
-135.21
-155.41
-172.94
-184.80
-189.04
-184.94
-172.93
-154.40
-131.65
-107.78
-86.38
-70.67
-62.65
-62.33
-67.68
-75.35
-81.97
-85.35
-85.36
-83.81
-83.39
-86.08
-91.76
-97.50
-98.47
-89.72
-68.31
-34.68
7.62
53.30
97.11
134.97
164.21
183.46
193.02
195.65
196.75
203.21
220.51
249.46
284.57
315.56
331.59
326.04
299.26
257.76
210.64
165.44
125.79
91.57
60.92
32.21
4.77
-21.84
-48.90
-78.86
-114.39
-156.65
-203.97
-251.75
-293.91
-325.13
-343.00
-348.86
-347.15
-343.38
-341.71
-343.45
-346.77
-348.12
-344.02
-332.64
-314.28
-290.94
-265.27
-239.81
-216.46
-196.39
-180.02
-166.83
-155.13
-142.18
-124.99
-101.49
-71.69
-38.00
-4.54
24.32
45.56
58.34
64.00
65.37
65.74
67.93
73.83
84.15
98.53
115.76
133.99
151.16
165.51
176.07
182.99
187.57
191.70
197.09
204.48
213.15
221.04
225.37
223.57
214.19
197.39
175.00
149.92
125.31
103.71
86.52
73.90
65.07
58.85
54.20
50.36
46.84
43.30
39.39
34.81
29.23
22.12
12.39
-1.52
-20.81
-45.10
-71.55
-94.66
-107.59
-104.60
-83.53
-47.30
-3.12
39.79
73.06
90.97
90.83
72.42
37.67
-8.94
-59.90
-105.29
-134.99
-142.24
-126.40
-93.49
-53.69
-17.26
9.36
25.21
33.48
38.58
43.45
48.57
52.66
54.11
52.36
48.35
43.92
40.90
40.33
42.26
46.14
51.39
57.87
65.60
74.17
82.07
86.77
85.51
76.59
60.34
39.21
16.87
-3.20
-18.78
-29.15
-34.60
-36.08
-35.23
-34.77
-38.39
-49.88
-71.38
-101.87
-136.75
-169.04
-191.82
-200.70
-195.11
-177.87
-153.69
-127.24
-101.89
-79.38
-60.33
-44.59
-31.63
-20.51
-10.05
0.92
13.21
26.94
41.47
55.50
67.69
77.20
84.17
89.62
95.11
101.98
110.69
120.47
129.43
135.10
135.12
128.14
114.40
95.92
76.27
59.53
49.19
47.05
52.60
63.38
76.00
87.41
95.97
101.80
106.20
110.66
116.13
122.74
130.28
138.52
147.25
155.84
162.71
165.37
161.19
148.74
128.83
104.55
80.20
59.63
44.99
36.31
31.98
29.67
26.99
21.79
12.43
-1.80
-20.21
-40.50
-59.42
-73.95
-82.50
-85.40
-84.44
-81.39
-76.73
-69.17
-56.29
-35.94
-7.43
28.05
67.94
109.39
150.12
188.50
223.18
252.46
274.19
286.30
287.64
278.74
261.87
240.41
217.82
196.70
178.41
163.20
150.75
140.58
132.26
125.36
119.24
113.04
105.67
95.80
81.90
62.28
35.64
1.63
-38.38
-81.19
-122.21
-156.64
-180.81
-193.18
-194.58
-187.63
-175.76
-162.48
-150.99
-144.30
-145.03
-154.87
-173.63
-198.44
-223.90
-243.55
-252.10
-247.69
-232.76
-213.38
-196.88
-189.17
-192.89
-207.21
-229.11
-255.18
-282.71
-309.65
-333.74
-351.78
-359.69
-353.88
-332.87
-298.42
-255.38
-210.06
-167.81
-131.12
-99.02
-68.12
-34.73
2.99
43.86
83.59
116.06
135.04
135.94
117.05
80.22
30.60
-23.97
-74.16
-110.63
-125.84
-115.89
-82.20
-32.14
22.31
67.66
93.29
95.41
78.48
53.58
34.09
30.73
48.03
83.60
130.00
178.18
220.51
252.24
271.19
276.57
267.96
245.39
210.17
165.85
118.42
75.17
42.51
23.62
17.24
18.09
19.06
13.93
-0.59
-24.29
-54.17
-85.96
-115.26
-138.29
-152.59
-157.29
-153.32
-143.45
-131.52
-121.16
-114.40
-111.18
-109.79
-108.19
-105.07
-100.10
-93.47
-85.17
-74.82
-62.33
-48.69
-36.38
-28.58
-27.78
-34.38
-46.38
-60.31
-72.97
-82.94
-90.92
-98.81
-108.23
-119.25
-130.25
-138.85
-143.09
-142.53
-138.32
-132.09
-124.48
-114.28
-98.90
-75.98
-45.08
-8.40
30.01
66.00
97.04
122.67
143.82
161.32
174.89
183.01
183.64
175.43
158.47
134.45
106.26
77.23
50.55
28.71
13.01
3.24
-2.38
-6.76
-13.09
-23.87
-39.93
-60.11
-81.46
-100.08
-112.25
-115.30
-108.07
-90.88
-65.20
-33.22
2.55
39.61
75.56
108.03
134.32
151.18
155.02
142.97
114.40
72.11
22.29
-27.07
-68.70
-98.52
-116.64
-126.43
-132.23
-136.98
-140.98
-142.08
-137.17
-124.01
-102.69
-76.15
-49.36
-27.67
-14.67
-10.50
-11.67
-12.61
-8.38
2.77
18.61
34.27
45.01
48.79
47.12
43.91
43.05
46.39
53.20
61.14
68.07
73.33
77.82
83.07
89.73
96.64
100.86
98.80
87.91
68.01
41.86
14.28
-9.59
-26.27
-35.09
-37.72
-36.58
-33.10
-26.82
-16.18
-0.08
20.56
42.70
62.40
76.70
84.96
88.83
91.00
93.61
97.29
101.26
104.19
105.02
103.35
99.18
92.55
83.40
71.88
58.79
45.74
35.00
28.74
28.42
34.18
44.78
57.96
71.01
81.49
87.78
89.31
86.44
80.15
71.50
61.48
50.96
40.91
32.42
26.52
23.67
23.27
23.69
22.78
18.92
11.89
2.99
-5.66
-12.48
-17.49
-22.45
-29.96
-41.97
-58.61
-77.89
-96.48
-110.97
-118.97
-119.61
-113.37
-101.68
-86.50
-70.27
-55.78
-45.70
-41.74
-43.86
-50.08
-57.12
-61.74
-62.13
-58.52
-52.68
-46.67
-41.47
-36.21
-28.46
-15.48
4.22
29.86
58.34
85.24
106.45
119.61
124.74
123.83
119.60
114.13
107.97
100.18
89.21
73.97
54.69
33.11
11.84
-6.47
-20.04
-28.45
-32.53
-33.82
-33.81
-33.23
-31.88
-28.91
-23.36
-14.76
-3.43
9.69
23.39
36.61
48.56
58.62
66.17
70.50
70.98
67.33
59.89
49.53
37.37
24.47
11.51
-1.27
-13.88
-26.39
-38.70
-50.31
-60.21
-66.87
-68.36
-63.01
-50.21
-31.18
-9.06
11.77
27.16
34.70
34.55
29.13
21.92
15.99
12.94
12.65
13.78
14.50
13.22
8.95
1.57
-8.29
-19.19
-29.26
-36.64
-40.04
-39.17
-34.66
-27.45
-17.97
-5.76
10.07
29.66
51.30
71.33
85.34
90.17
85.58
74.47
61.37
50.23
42.68
37.89
33.85
29.15
23.93
19.66
17.82
18.78
21.50
24.16
25.23
24.24
21.80
19.17
17.49
17.43
19.01
21.85
25.47
29.36
33.07
36.12
37.88
37.66
34.89
29.45
21.90
13.37
5.29
-1.21
-5.63
-8.28
-9.93
-11.41
-13.01
-14.46
-14.96
-13.66
-10.08
-4.51
1.90
7.26
9.30
6.00
-3.71
-19.33
-38.75
-58.64
-75.41
-86.22
-89.53
-85.05
-73.33
-55.46
-33.17
-9.01
13.78
32.04
43.98
49.85
51.82
52.53
53.62
55.21
56.72
58.47
62.48
71.51
86.52
104.57
118.89
121.62
107.72
77.60
36.75
-7.05
-47.34
-80.91
-107.38
-127.04
-139.17
-141.90
-133.72
-115.24
-89.69
-61.73
-35.39
-12.52
7.22
24.98
41.16
54.39
62.13
62.02
53.43
38.24
20.30
4.06
-7.11
-12.00
-11.55
-8.22
-4.70
-2.95
-3.58
-5.80
-7.96
-8.24
-5.46
0.41
8.33
16.80
24.74
32.12
39.93
49.56
61.73
75.68
88.86
97.37
96.89
83.80
56.60
16.81
-30.67
-78.50
-118.79
-145.52
-156.35
-152.98
-140.06
-122.98
-105.96
-91.09
-78.49
-67.14
-55.82
-43.68
-30.36
-16.04
-1.24
13.41
27.34
40.33
52.77
65.64
80.32
97.91
118.38
139.77
158.15
168.60
167.07
152.19
126.27
94.79
64.35
40.23
24.66
16.58
12.91
10.25
6.15
-0.70
-10.88
-24.71
-42.12
-62.14
-82.63
-100.63
-113.08
-118.05
-115.38
-106.55
-94.01
-80.12
-66.40
-53.35
-40.99
-29.45
-19.53
-12.66
-10.42
-13.89
-22.85
-35.62
-49.25
-60.37
-66.21
-65.56
-59.19
-49.35
-38.81
-29.65
-22.54
-16.72
-10.68
-3.09
6.58
17.76
28.87
37.46
40.25
33.41
13.44
-21.31
-68.97
-123.33
-174.86
-213.60
-232.55
-229.80
-208.48
-174.75
-135.12
-94.79
-57.27
-25.06
-0.16
16.35
25.25
29.73
34.68
44.34
59.48
76.05
86.34
82.71
61.68
26.41
-14.23
-49.43
-71.20
-77.52
-72.11
-61.46
-50.70
-41.06
-30.39
-15.72
3.97
26.58
48.05
64.88
75.97
82.90
88.61
95.40
103.83
112.65
119.66
122.95
121.67
116.19
107.79
98.07
88.42
79.60
71.51
63.31
53.86
42.46
29.26
15.48
2.92
-6.69
-12.44
-14.45
-13.77
-12.14
-11.97
-16.20
-27.94
-49.59
-81.62
-121.56
-163.93
-201.39
-226.72
-235.02
-224.88
-198.48
-160.54
-116.98
-73.70
-35.86
-7.39
9.46
14.54
10.25
1.25
-6.61
-8.24
-1.31
12.62
28.62
40.60
44.09
38.19
25.64
11.19
-0.94
-8.73
-12.54
-13.88
-13.69
-11.65
-6.60
2.16
13.89
26.52
37.62
45.74
51.01
54.82
58.85
64.26
71.15
78.79
85.94
91.32
93.68
91.98
85.50
74.08
58.39
39.91
20.59
2.39
-13.13
-25.09
-33.31
-38.11
-40.16
-40.34
-39.64
-38.86
-38.49
-38.56
-38.60
-37.91
-35.78
-31.84
-26.19
-19.41
-12.31
-5.67
0.07
4.94
9.43
14.23
20.01
27.21
35.81
45.30
54.79
63.24
69.79
73.99
75.93
75.97
74.51
71.71
67.54
62.04
55.57
48.93
43.09
38.81
36.30
35.17
34.75
34.47
34.03
33.46
32.92
32.46
32.15
32.11
32.57
33.79
35.79
38.12
39.79
39.61
36.59
30.38
21.38
10.49
-1.22
-12.71
-23.14
-31.77
-38.12
-42.17
-44.55
-46.44
-49.02
-52.91
-57.71
-62.15
-64.71
-64.55
-62.05
-58.68
-56.44
-56.95
-60.83
-67.56
-75.72
-83.36
-88.47
-89.45
-85.39
-76.39
-63.54
-48.58
-33.44
-19.66
-7.97
1.68
9.88
17.47
25.19
33.58
42.89
53.03
63.55
73.68
82.50
89.20
93.32
94.84
94.18
91.95
88.84
85.45
82.21
79.38
76.94
74.54
71.72
68.12
63.76
59.11
54.87
51.50
48.84
46.06
42.06
35.92
27.32
16.66
4.95
-6.36
-15.59
-21.11
-21.82
-17.88
-11.31
-5.84
-5.75
-13.99
-30.56
-52.10
-73.07
-88.10
-94.24
-91.87
-84.07
-74.78
-67.06
-62.14
-59.70
-58.77
-58.60
-59.09
-60.47
-62.85
-65.96
-69.13
-71.65
-72.99
-72.97
-71.65
-69.12
-65.29
-59.83
-52.34
-42.51
-30.39
-16.45
-1.51
13.47
27.51
39.88
50.09
58.00
63.90
68.38
72.21
76.10
80.46
85.36
90.57
95.74
100.44
104.26
106.76
107.62
106.64
104.08
100.61
97.29
95.22
95.11
97.04
100.39
104.17
107.53
110.14
112.25
114.54
117.64
121.81
126.69
131.43
134.78
135.41
132.28
125.05
114.58
102.87
92.37
84.87
80.33
76.63
70.13
57.22
35.74
5.94
-29.75
-67.61
-103.86
-135.59
-161.06
-179.68
-191.65
-197.66
-198.63
-195.57
-189.51
-181.46
-172.71
-164.69
-158.87
-156.40
-157.70
-162.39
-169.35
-177.11
-184.09
-189.01
-190.91
-189.20
-183.67
-174.41
-161.76
-146.30
-128.80
-110.11
-91.00
-71.72
-51.82
-30.34
-6.40
20.00
47.74
74.94
99.82
121.30
138.96
152.30
160.12
160.51
151.75
133.72
108.70
80.87
54.77
33.61
18.30
7.88
0.84
-3.80
-6.19
-6.15
-4.02
-0.98
1.30
1.38
-1.29
-6.09
-11.42
-15.19
-15.52
-11.35
-2.82
8.57
20.27
29.29
33.13
30.46
21.43
7.60
-8.69
-24.99
-39.39
-50.86
-59.19
-64.66
-67.57
-67.89
-65.32
-59.73
-51.76
-43.16
-36.61
-34.73
-39.00
-48.89
-61.89
-74.53
-83.79
-88.23
-88.24
-85.35
-81.09
-76.16
-70.13
-61.87
-50.23
-34.67
-15.46
6.47
29.76
52.82
74.14
92.41
106.95
118.08
127.08
135.75
145.50
156.54
167.44
175.44
177.33
170.67
154.71
130.73
101.66
71.24
43.02
19.51
1.84
-10.21
-17.81
-22.59
-26.09
-29.43
-33.17
-37.30
-41.34
-44.44
-45.58
-43.84
-38.82
-31.02
-21.95
-13.91
-9.28
-9.80
-15.85
-26.39
-39.31
-52.22
-63.17
-71.20
-76.28
-78.89
-79.52
-78.30
-75.05
-69.75
-62.99
-56.25
-51.49
-50.35
-53.25
-58.88
-64.65
-67.64
-65.84
-58.96
-48.42
-36.61
-25.80
-17.38
-11.55
-7.60
-4.40
-0.85
3.85
10.19
18.45
28.76
41.10
55.19
70.39
85.79
100.34
113.25
124.09
132.75
139.09
142.65
142.51
137.64
127.48
112.46
94.11
74.64
56.16
40.13
26.99
16.37
7.53
-0.26
-7.39
-13.84
-19.25
-23.08
-24.94
-24.78
-23.07
-20.62
-18.25
-16.37
-14.83
-13.17
-11.18
-9.34
-8.85
-11.05
-16.62
-24.98
-34.38
-42.71
-48.38
-50.90
-50.82
-49.15
-46.73
-44.06
-41.52
-39.82
-40.13
-43.70
-51.04
-61.36
-72.62
-82.17
-87.89
-88.97
-86.26
-81.64
-77.19
-74.36
-73.61
-74.60
-76.57
-78.58
-79.41
-77.46
-70.82
-57.86
-37.95
-12.07
17.38
47.34
75.06
98.78
117.58
130.88
137.99
138.12
131.02
117.67
100.45
82.56
67.00
55.59
48.65
45.17
43.54
42.04
39.19
33.89
25.62
14.67
2.41
-8.88
-16.58
-18.59
-14.26
-4.91
6.37
15.48
18.69
13.85
1.15
-16.85
-36.22
-52.99
-64.46
-69.99
-70.75
-68.87
-66.33
-64.11
-62.11
-59.53
-55.71
-50.69
-45.37
-41.00
-38.53
-38.02
-38.54
-38.63
-36.98
-33.03
-27.03
-19.62
-11.38
-2.66
6.20
14.42
20.63
23.32
21.65
16.04
8.15
0.25
-5.64
-8.45
-8.02
-4.74
0.93
8.69
18.34
29.56
41.74
54.09
65.80
76.07
84.14
89.06
89.80
85.52
76.04
62.14
45.44
27.92
11.14
-4.24
-18.45
-31.84
-44.04
-53.47
-57.85
-55.25
-45.39
-30.20
-13.21
1.91
12.91
19.72
24.10
28.32
34.03
41.46
49.84
58.26
66.37
74.61
83.58
93.42
103.42
112.39
119.38
124.32
128.04
131.55
135.19
138.05
138.18
133.50
122.79
106.29
85.64
63.16
40.98
20.34
1.52
-15.74
-31.59
-45.66
-57.03
-64.68
-68.09
-67.61
-64.31
-59.46
-53.88
-47.64
-40.29
-31.37
-20.94
-9.59
2.19
14.78
29.78
49.69
76.80
111.82
153.10
196.82
238.12
272.61
297.51
311.90
316.25
311.65
299.39
281.05
258.77
235.35
213.84
196.59
184.44
176.39
170.06
162.65
151.99
137.16
118.35
96.43
72.21
46.06
17.77
-13.31
-47.91
-86.67
-129.79
-176.62
-225.06
-271.34
-310.32
-336.68
-346.41
-338.20
-313.90
-277.78
-235.14
-190.80
-148.21
-109.37
-75.26
-46.26
-22.37
-3.01
13.01
27.40
41.82
57.29
73.73
89.91
103.57
112.16
113.58
107.02
93.45
75.44
56.46
39.59
26.53
17.16
9.90
2.76
-5.63
-15.42
-25.70
-35.34
-43.77
-51.45
-59.67
-69.79
-82.58
-97.79
-114.23
-130.22
-144.12
-154.73
-161.51
-164.51
-164.14
-161.03
-155.76
-148.81
-140.52
-131.17
-121.12
-110.97
-101.45
-93.28
-86.79
-81.90
-78.13
-74.96
-72.14
-69.70
-67.84
-66.61
-65.70
-64.49
-62.32
-58.88
-54.48
-50.19
-47.47
-47.65
-51.38
-58.20
-66.59
-74.63
-80.73
-84.34
-86.01
-86.90
-87.83
-88.63
-88.08
-84.53
-76.88
-65.18
-50.60
-34.79
-19.05
-3.97
10.55
24.69
38.18
50.18
59.56
65.46
67.75
67.11
64.63
61.34
57.84
54.24
50.42
46.31
42.00
37.62
33.20
28.49
23.06
16.54
8.84
0.27
-8.60
-17.11
-24.70
-30.90
-35.29
-37.48
-37.24
-34.61
-30.10
-24.64
-19.37
-15.23
-12.72
-11.72
-11.70
-11.96
-11.99
-11.65
-11.14
-10.84
-11.06
-11.84
-12.91
-13.83
-14.20
-13.86
-13.00
-12.01
-11.31
-11.09
-11.24
-11.50
-11.57
-11.39
-11.19
-11.29
-12.00
-13.42
-15.37
-17.49
-19.31
-20.43
-20.52
-19.45
-17.18
-13.89
-9.91
-5.65
-1.61
1.79
4.26
5.68
6.09
5.60
4.35
2.45
0.06
-2.66
-5.43
-7.95
-9.94
-11.23
-11.81
-11.78
-11.29
-10.44
-9.30
-7.90
-6.31
-4.67
-3.17
-2.07
-1.57
-1.79
-2.75
-4.24
-5.90
-7.26
-7.79
-7.15
-5.22
-2.27
1.22
4.66
7.58
9.74
11.14
11.93
12.30
12.35
12.09
11.53
10.71
9.78
8.92
8.24
7.73
7.24
6.60
5.67
4.49
3.24
2.13
1.34
0.86
0.52
0.05
-0.79
-2.13
-3.89
-5.87
-7.85
-9.62
-11.03
-11.95
-12.24
-11.80
-10.55
-8.55
-5.96
-3.12
-0.32
2.11
3.97
5.16
5.64
5.41
4.53
3.03
0.99
-1.52
-4.45
-7.74
-11.33
-15.06
-18.65
-21.78
-24.22
-25.96
-27.30
-28.73
-30.72
-33.51
-36.85
-40.14
-42.50
-43.08
-41.29
-37.00
-30.52
-22.51
-13.81
-5.22
2.78
10.14
17.13
24.17
31.49
38.86
45.48
50.15
51.69
49.43
43.53
35.06
25.68
17.16
10.78
6.87
4.75
3.03
0.14
-4.90
-12.17
-20.79
-29.26
-35.98
-39.86
-40.61
-38.80
-35.65
-32.55
-30.60
-30.30
-31.49
-33.47
-35.26
-35.98
-35.01
-32.03
-26.98
-19.89
-10.87
-0.18
11.76
24.25
36.53
47.82
57.61
65.67
72.08
77.13
81.12
84.24
86.47
87.60
87.31
85.30
81.39
75.59
68.10
59.33
49.86
40.37
31.57
23.98
17.82
12.93
8.82
4.77
0.16
-5.31
-11.49
-17.75
-23.30
-27.45
-29.91
-30.90
-30.97
-30.71
-30.58
-30.66
-30.81
-30.84
-30.69
-30.50
-30.54
-31.05
-32.03
-33.28
-34.41
-34.98
-34.73
-33.60
-31.84
-29.95
-28.56
-28.28
-29.52
-32.33
-36.41
-41.18
-45.96
-50.19
-53.45
-55.50
-56.05
-54.77
-51.25
-45.20
-36.71
-26.38
-15.14
-3.99
6.34
15.55
23.81
31.47
38.74
45.47
51.03
54.40
54.57
50.92
43.64
33.87
23.37
13.97
6.98
2.79
0.92
0.43
0.42
0.35
0.07
-0.38
-0.97
-1.73
-2.61
-3.33
-3.34
-1.92
1.46
7.02
14.41
22.86
31.35
38.81
44.43
47.76
48.76
47.77
45.32
41.97
38.10
33.87
29.28
24.29
18.89
13.25
7.56
2.06
-3.10
-7.82
-11.99
-15.49
-18.24
-20.27
-21.90
-23.65
-26.12
-29.63
-34.02
-38.65
-42.64
-45.20
-45.93
-44.92
-42.57
-39.38
-35.78
-32.04
-28.39
-25.12
-22.56
-21.08
-20.94
-22.22
-24.73
-28.13
-31.97
-35.85
-39.46
-42.64
-45.31
-47.43
-48.89
-49.53
-49.15
-47.61
-44.89
-41.21
-36.88
-32.29
-27.71
-23.17
-18.45
-13.14
-6.73
1.09
10.32
20.54
31.01
40.86
49.31
55.85
60.25
62.59
63.10
62.16
60.13
57.33
54.00
50.30
46.39
42.45
38.68
35.25
32.26
29.67
27.28
24.87
22.24
19.25
15.83
11.97
7.76
3.43
-0.51
-3.40
-4.49
-3.24
0.50
6.40
13.76
21.66
29.26
35.83
40.92
44.30
45.98
46.17
45.23
43.52
41.30
38.66
35.49
31.67
27.20
22.23
17.11
12.13
7.52
3.24
-0.89
-5.14
-9.69
-14.57
-19.57
-24.23
-27.93
-29.90
-29.46
-26.16
-19.98
-11.32
-1.01
9.97
20.64
30.24
38.26
44.41
48.63
51.02
51.80
51.31
49.82
47.51
44.35
40.22
35.03
28.83
21.83
14.32
6.50
-1.45
-9.40
-17.10
-24.13
-29.96
-34.12
-36.37
-36.71
-35.31
-32.30
-27.71
-21.51
-13.78
-4.90
4.33
12.86
19.59
23.65
24.71
23.01
19.25
14.33
9.07
3.96
-0.79
-5.23
-9.45
-13.44
-17.05
-20.09
-22.43
-24.22
-25.85
-27.87
-30.76
-34.72
-39.47
-44.30
-48.23
-50.19
-49.30
-45.02
-37.26
-26.39
-13.18
1.30
15.78
29.03
40.01
48.09
53.11
55.36
55.42
53.99
51.69
49.02
46.30
43.72
41.41
39.46
37.85
36.45
35.04
33.21
30.46
26.18
19.68
10.43
-1.73
-16.31
-32.07
-47.15
-59.53
-67.57
-70.50
-68.58
-63.01
-55.48
-47.76
-41.23
-36.68
-34.37
-34.08
-35.35
-37.58
-40.10
-42.26
-43.56
-43.79
-43.11
-42.08
-41.34
-41.40
-42.34
-43.79
-45.12
-45.81
-45.81
-45.65
-46.23
-48.36
-52.38
-57.82
-63.49
-67.71
-68.84
-65.71
-57.93
-45.96
-31.00
-14.75
0.91
14.15
23.57
28.46
28.87
25.71
20.38
14.42
9.07
5.00
2.36
0.98
0.61
1.03
2.07
3.40
4.62
5.23
4.92
3.68
1.79
-0.24
-1.99
-3.12
-3.42
-2.72
-0.77
2.71
7.95
14.93
23.27
32.25
40.90
48.23
53.41
55.93
55.69
52.94
48.26
42.32
35.74
28.98
22.32
15.87
9.61
3.53
-2.33
-7.88
-12.93
-17.33
-20.93
-23.64
-25.39
-26.09
-25.56
-23.54
-19.75
-13.98
-6.26
3.14
13.72
24.88
36.03
46.73
56.64
65.54
73.21
79.45
84.15
87.30
89.04
89.54
88.83
86.67
82.71
76.63
68.47
58.86
48.86
39.70
32.32
27.06
23.57
21.01
18.48
15.37
11.59
7.63
4.37
2.84
3.89
7.98
15.00
24.38
35.14
46.28
56.87
66.25
73.98
79.76
83.38
84.78
84.15
82.05
79.27
76.66
74.79
73.84
73.54
73.49
73.37
73.11
72.82
72.55
72.19
71.45
70.05
67.90
65.09
61.88
58.49
55.04
51.59
48.23
45.24
42.99
41.77
41.41
41.16
39.65
35.44
27.64
16.46
3.33
-9.63
-20.43
-28.04
-32.74
-35.78
-38.62
-42.21
-46.76
-52.00
-57.63
-63.37
-68.88
-73.47
-76.20
-76.36
-73.97
-69.98
-65.69
-61.96
-58.47
-53.80
-46.26
-34.90
-20.16
-3.78
12.07
25.57
35.75
42.31
45.27
44.66
40.59
33.50
24.37
14.57
5.56
-1.64
-6.76
-10.21
-12.80
-15.30
-18.11
-21.13
-23.94
-26.11
-27.60
-28.95
-31.15
-35.37
-42.50
-52.71
-65.22
-78.38
-90.00
-97.93
-100.62
-97.47
-88.89
-76.03
-60.43
-43.59
-26.81
-11.06
2.98
14.88
24.69
32.84
40.09
47.11
54.02
60.16
64.33
65.39
63.07
58.28
52.86
48.87
47.75
49.72
53.86
58.58
62.29
63.80
62.48
58.06
50.51
39.98
27.26
13.97
2.47
-4.71
-5.74
-0.24
10.48
23.75
36.27
45.36
49.76
49.79
46.87
42.55
37.84
32.78
26.69
18.13
5.81
-10.93
-31.82
-55.73
-80.94
-105.44
-127.16
-144.37
-156.90
-165.49
-171.43
-176.08
-180.55
-185.43
-190.54
-194.75
-196.37
-195.69
-193.63
-191.30
-189.26
-187.54
-186.14
-185.19
-184.78
-184.86
-187.82
-195.27
-206.69
-218.89
-227.55
-229.40
-223.54
-211.20
-195.10
-182.07
-178.36
-187.45
-208.63
-238.08
-270.69
-301.20
-324.40
-313.84
-253.12
-143.43
-6.94
125.91
232.87
306.69
352.06
378.96
396.83
408.04
411.58
405.52
390.76
370.93
350.31
331.94
317.13
305.69
294.60
280.25
259.81
233.64
204.14
174.20
146.07
121.31
100.89
83.45
67.45
49.94
29.34
5.12
-22.68
-54.51
-91.55
-135.86
-190.87
-244.89
-286.46
-303.90
-290.81
-249.26
-189.30
-124.28
-65.65
-19.52
14.19
37.39
52.61
59.43
57.75
47.57
30.98
12.57
-1.64
-6.41
-0.93
12.39
29.01
44.57
56.43
64.96
71.44
77.69
85.11
92.94
99.08
100.52
94.60
79.73
56.18
26.01
-7.32
-40.10
-69.78
-94.79
-114.25
-127.31
-133.34
-132.36
-125.82
-116.46
-107.50
-101.24
-97.37
-92.69
-82.22
-61.68
-29.87
9.98
50.88
84.25
102.91
103.44
87.07
59.11
27.09
-0.88
-17.72
-18.33
-0.49
34.43
80.91
129.88
170.75
194.58
197.10
180.03
150.22
116.65
87.13
66.08
54.14
49.38
48.94
50.12
50.86
49.57
45.02
36.38
23.49
6.96
-11.95
-31.78
-51.01
-68.00
-80.60
-86.31
-83.12
-70.93
-52.79
-34.95
-25.07
-29.28
-49.16
-80.59
-114.95
-142.57
-156.35
-153.95
-137.59
-111.91
-81.42
-49.11
-16.56
14.81
42.76
64.37
77.24
81.05
78.28
73.33
70.27
70.60
72.32
71.06
62.45
44.77
19.97
-7.24
-31.59
-49.39
-59.68
-63.60
-62.73
-57.43
-46.48
-28.24
-2.79
26.51
53.14
69.66
70.82
56.23
30.77
2.55
-20.42
-33.33
-35.69
-30.30
-20.91
-10.21
0.82
12.08
23.05
32.11
37.00
36.00
28.86
17.34
4.53
-6.28
-12.80
-13.97
-9.64
0.08
15.16
35.37
59.63
85.63
110.12
129.89
143.02
149.38
150.23
147.03
140.48
130.24
115.63
96.65
74.48
51.18
28.62
7.48
-13.01
-34.35
-57.77
-83.28
-109.21
-132.67
-150.63
-161.12
-164.04
-161.14
-155.14
-148.75
-143.77
-140.78
-139.44
-139.19
-139.80
-141.36
-143.98
-146.93
-148.94
-148.48
-144.27
-135.64
-122.50
-105.36
-85.30
-63.92
-42.34
-21.56
-2.19
16.03
34.29
54.07
75.96
98.72
119.36
135.91
147.04
152.45
153.01
150.39
146.55
142.97
140.24
138.21
139.15
144.75
154.95
167.86
180.76
191.79
200.62
208.17
215.95
228.66
249.47
278.06
310.84
342.39
368.00
385.12
393.59
375.13
322.14
240.67
148.49
64.51
-1.33
-48.23
-80.01
-101.35
-116.31
-125.02
-126.49
-123.71
-120.31
-119.26
-121.19
-124.76
-128.27
-131.17
-132.16
-131.80
-132.78
-136.27
-142.70
-150.39
-156.39
-158.45
-156.29
-150.01
-140.72
-129.98
-118.68
-107.03
-94.49
-80.53
-65.45
-50.53
-36.87
-25.89
-19.47
-19.45
-27.30
-43.02
-64.68
-88.44
-109.39
-122.54
-124.60
-115.66
-99.05
-80.41
-65.56
-58.89
-62.21
-74.79
-94.00
-116.06
-137.58
-155.73
-168.20
-173.11
-169.47
-157.48
-138.79
-115.99
-91.49
-67.77
-46.54
-28.33
-12.50
2.07
16.41
30.78
44.31
55.68
62.07
60.42
49.00
30.63
11.07
-2.66
-5.57
-0.01
14.13
36.28
63.60
90.95
109.96
112.08
91.59
48.21
-11.93
-76.52
-131.23
-163.09
-163.93
-133.28
-79.45
-17.47
35.54
66.78
73.06
60.55
41.52
28.79
30.39
47.29
74.20
102.57
123.91
132.39
125.16
102.74
68.92
29.79
-7.89
-38.74
-60.36
-73.44
-80.55
-84.56
-87.19
-88.43
-86.86
-80.53
-67.74
-47.90
-21.72
8.65
39.78
67.71
88.41
98.38
95.29
78.73
50.95
16.98
-16.18
-41.55
-54.44
-54.22
-44.29
-30.61
-19.11
-13.53
-14.52
-20.07
-26.90
-31.80
-32.55
-28.27
-19.61
-8.63
1.48
7.21
5.76
-3.83
-20.02
-38.93
-55.08
-62.66
-56.65
-33.97
5.53
58.08
115.79
167.83
203.11
213.87
198.33
161.20
111.53
59.10
11.15
-29.00
-61.22
-86.57
-105.68
-118.22
-123.73
-122.52
-116.16
-106.85
-96.53
-86.11
-75.57
-64.34
-51.96
-38.37
-23.83
-8.52
7.87
26.40
48.43
74.59
103.49
131.03
150.97
156.90
144.77
114.90
72.36
25.38
-17.27
-49.08
-67.40
-73.58
-71.73
-67.13
-64.53
-67.11
-75.91
-89.80
-105.80
-119.96
-128.31
-127.87
-117.34
-97.31
-70.18
-39.76
-10.47
13.65
30.10
38.85
42.29
44.31
48.86
58.79
75.28
97.96
125.24
154.39
181.60
202.20
211.47
206.05
185.25
151.53
109.78
65.71
24.01
-12.62
-43.43
-68.78
-89.20
-104.81
-115.32
-120.37
-119.86
-114.30
-104.78
-92.85
-80.03
-67.32
-54.87
-41.95
-27.35
-9.91
10.90
34.64
59.77
83.91
104.29
118.31
124.08
120.83
108.96
89.88
65.64
38.62
11.12
-14.74
-37.41
-55.98
-70.42
-81.58
-90.92
-100.05
-110.15
-121.36
-132.58
-141.77
-146.56
-145.05
-136.51
-121.66
-102.61
-82.27
-63.72
-49.41
-40.55
-36.85
-36.45
-36.23
-32.33
-20.85
1.38
35.96
81.97
135.24
188.39
232.17
258.09
261.43
243.24
210.12
171.71
136.89
110.67
93.12
80.75
69.10
55.14
38.10
18.96
-0.85
-20.33
-38.87
-55.79
-69.97
-79.86
-83.95
-81.24
-71.66
-56.23
-36.77
-15.41
5.80
25.16
41.08
51.87
55.79
51.49
38.74
18.88
-5.19
-29.88
-51.85
-68.95
-80.33
-86.25
-87.74
-86.37
-84.26
-83.79
-86.95
-94.23
-104.11
-113.35
-118.40
-116.92
-108.79
-95.85
-80.70
-65.49
-51.12
-37.49
-24.11
-10.72
2.80
16.86
32.55
51.45
74.55
101.26
129.16
154.97
176.17
192.22
204.27
213.73
220.62
222.98
218.02
204.18
182.75
157.75
134.11
115.08
100.58
87.48
71.60
50.08
22.88
-7.41
-36.96
-62.27
-81.02
-91.76
-93.23
-84.44
-65.49
-38.90
-10.09
13.87
27.10
27.63
18.56
6.42
-2.26
-4.24
-0.72
4.17
6.44
4.68
0.25
-4.46
-8.49
-13.25
-21.45
-34.80
-52.16
-69.49
-81.58
-84.67
-78.28
-65.29
-50.27
-37.28
-28.22
-22.56
-18.36
-13.71
-7.77
-0.94
5.77
11.70
17.46
25.15
38.00
59.20
90.49
130.86
175.88
218.30
249.77
263.46
256.34
230.16
190.62
145.13
100.25
59.93
25.32
-4.13
-29.27
-50.27
-66.70
-78.43
-86.49
-93.14
-101.18
-112.35
-126.10
-139.52
-148.26
-148.21
-137.18
-115.71
-86.88
-55.40
-26.28
-3.65
10.06
14.45
10.96
2.25
-8.60
-18.85
-26.62
-31.07
-32.38
-31.50
-29.95
-29.55
-32.14
-39.05
-50.52
-65.29
-80.77
-93.87
-102.35
-105.65
-105.17
-103.58
-103.60
-106.87
-113.45
-122.05
-130.62
-137.06
-139.40
-135.69
-123.77
-101.54
-67.61
-22.34
31.57
89.27
144.71
192.17
227.51
248.77
255.97
250.47
234.25
209.51
178.64
144.20
108.91
75.17
44.68
18.16
-4.54
-23.97
-40.71
-55.11
-67.56
-78.68
-89.30
-99.98
-110.29
-118.40
-121.57
-117.08
-103.39
-80.74
-51.10
-17.54
16.22
46.05
67.52
76.58
71.05
52.12
24.93
-2.73
-23.24
-32.35
-30.74
-23.35
-16.66
-15.52
-21.19
-31.37
-41.91
-49.01
-50.87
-47.97
-42.47
-37.04
-33.82
-33.72
-36.27
-39.62
-41.31
-39.04
-31.35
-18.09
-0.43
19.42
38.71
54.70
65.27
69.52
68.28
64.24
61.53
64.72
77.24
99.89
130.08
162.15
189.08
204.73
205.74
192.36
167.83
136.86
104.01
72.62
44.57
20.57
0.58
-15.84
-29.40
-40.68
-49.70
-55.68
-57.18
-52.89
-42.52
-27.49
-10.75
4.04
13.42
15.04
8.06
-6.74
-27.11
-49.51
-69.61
-83.26
-87.60
-82.08
-68.84
-52.08
-36.71
-26.69
-23.80
-27.14
-33.80
-40.10
-43.22
-42.31
-38.80
-35.70
-36.09
-41.70
-52.05
-64.59
-75.78
-82.45
-82.72
-76.21
-63.58
-45.97
-24.58
-0.70
24.12
48.40
71.13
92.35
113.30
135.75
160.70
187.02
210.98
227.24
230.83
219.42
194.48
160.89
124.91
91.93
64.79
43.65
27.03
13.28
1.52
-8.45
-16.83
-24.46
-32.63
-42.24
-52.87
-62.48
-68.16
-67.65
-60.52
-48.76
-36.28
-27.55
-26.04
-32.95
-46.69
-63.34
-77.90
-85.95
-85.18
-75.96
-60.89
-43.39
-26.14
-10.27
4.40
18.31
31.18
41.80
48.68
51.22
50.32
48.25
47.55
49.86
55.47
63.53
72.98
83.06
92.94
100.83
103.48
97.15
79.89
53.79
25.39
3.34
-6.04
-2.65
6.63
11.15
2.20
-22.12
-55.65
-87.35
-106.74
-108.56
-94.15
-69.39
-41.04
-13.68
11.18
34.06
55.56
74.89
89.47
95.78
90.87
73.76
46.32
12.94
-20.83
-50.21
-72.57
-87.47
-95.58
-97.44
-93.20
-83.80
-72.62
-66.09
-71.93
-95.46
-136.08
-186.19
-233.57
-266.06
-276.18
-263.29
-232.47
-191.42
-147.28
-105.16
-68.34
-39.40
-20.61
-13.29
-16.62
-27.06
-39.22
-48.04
-50.99
-48.97
-45.39
-44.12
-47.48
-55.29
-65.47
-75.39
-82.98
-86.91
-86.02
-78.78
-63.51
-39.17
-6.47
31.85
71.58
108.33
138.67
160.75
174.24
180.03
179.93
176.40
172.10
169.26
168.95
170.60
172.23
171.28
165.70
154.77
139.35
121.31
102.71
84.99
68.40
52.20
35.10
15.96
-5.68
-29.19
-52.71
-73.28
-87.46
-92.61
-88.40
-77.84
-66.93
-62.59
-69.67
-88.60
-114.86
-140.82
-158.92
-164.47
-156.86
-138.81
-114.52
-88.15
-62.93
-41.21
-24.58
-13.71
-8.04
-5.77
-4.45
-1.93
2.76
9.08
15.41
19.71
20.45
17.21
10.94
3.79
-1.44
-2.22
2.92
13.86
29.02
45.97
62.32
76.41
87.59
96.10
102.77
108.65
114.74
121.68
129.69
138.45
147.18
154.81
160.30
162.79
161.72
156.86
148.26
136.25
121.41
104.55
86.52
68.10
49.76
31.63
13.55
-4.61
-22.67
-39.98
-55.35
-67.37
-74.82
-77.31
-75.73
-72.46
-70.78
-73.75
-83.01
-97.97
-116.05
-133.62
-147.27
-154.82
-155.57
-149.96
-139.16
-124.75
-108.67
-93.25
-80.81
-72.98
-69.98
-70.35
-71.51
-70.91
-67.22
-60.84
-53.59
-47.67
-44.60
-44.45
-45.93
-46.91
-45.32
-39.73
-29.56
-14.95
3.43
24.50
46.67
67.87
85.87
98.87
106.32
109.29
110.14
111.68
115.86
123.01
131.67
139.26
143.16
141.64
134.37
122.28
107.07
90.54
73.99
57.91
41.97
25.30
7.03
-13.12
-34.40
-55.05
-72.75
-85.29
-91.34
-90.96
-85.85
-79.36
-75.92
-80.19
-95.51
-122.39
-157.45
-193.60
-221.96
-234.65
-227.60
-201.79
-162.58
-117.39
-73.03
-33.95
-1.99
22.76
40.68
51.89
56.44
54.86
48.82
40.90
33.88
29.79
29.33
31.93
36.23
40.85
44.85
47.86
49.88
50.99
51.05
49.73
46.67
41.74
35.35
28.57
22.95
20.18
21.51
27.25
36.51
47.37
57.46
64.83
68.61
69.31
68.50
68.09
69.55
73.28
78.47
83.29
85.48
82.89
73.84
57.47
34.00
5.06
-26.10
-55.04
-77.17
-89.23
-90.60
-83.36
-71.37
-58.50
-47.19
-37.98
-30.29
-23.63
-18.22
-14.90
-14.15
-15.35
-16.85
-16.82
-14.36
-9.96
-5.15
-1.47
0.23
-0.02
-1.69
-4.40
-8.03
-12.51
-17.37
-21.54
-23.58
-22.23
-16.97
-8.15
3.18
15.70
28.07
39.13
47.77
52.94
53.92
50.66
44.17
36.46
30.11
27.51
30.12
38.06
50.18
64.55
78.95
91.40
100.38
105.03
105.25
101.73
95.93
89.66
84.52
81.28
79.45
77.39
72.80
63.59
48.57
27.95
3.30
-22.75
-47.10
-66.87
-80.04
-85.94
-85.50
-81.03
-75.67
-72.45
-73.44
-79.04
-88.03
-98.03
-106.46
-111.25
-111.41
-106.87
-98.31
-86.81
-73.70
-60.55
-49.03
-40.56
-35.89
-34.74
-35.88
-37.64
-38.58
-38.10
-36.53
-34.71
-33.45
-33.02
-32.91
-32.12
-29.46
-24.08
-15.66
-4.54
8.45
22.20
35.60
47.77
58.08
66.23
72.26
76.58
80.00
83.68
88.77
96.03
105.43
115.93
125.71
132.75
135.56
133.70
127.99
120.18
112.34
106.04
101.75
98.65
94.80
87.84
75.82
57.97
34.97
8.75
-18.05
-42.75
-62.99
-76.90
-83.47
-83.00
-77.67
-71.55
-69.63
-76.10
-92.47
-116.60
-143.38
-166.66
-181.56
-186.00
-180.83
-168.68
-152.57
-134.97
-117.71
-102.26
-89.89
-81.36
-76.53
-74.07
-71.82
-67.63
-60.28
-49.90
-37.90
-26.21
-16.39
-8.96
-3.20
2.45
9.65
19.38
31.44
44.43
56.15
64.34
67.48
65.29
58.89
50.47
42.82
38.68
40.07
47.77
61.02
77.50
93.90
106.80
113.76
114.04
108.68
100.00
90.54
82.19
75.66
70.57
65.88
60.38
53.15
43.73
32.35
19.82
7.30
-4.20
-14.32
-23.39
-32.08
-40.72
-48.81
-55.16
-58.64
-58.98
-57.19
-55.21
-54.86
-56.81
-60.27
-63.40
-64.34
-62.15
-57.17
-50.77
-44.56
-39.75
-36.79
-35.39
-34.83
-34.33
-33.23
-31.06
-27.53
-22.47
-15.84
-7.81
1.26
10.87
20.56
30.01
38.97
47.25
54.64
60.99
66.29
70.64
74.24
77.18
79.41
80.92
82.07
83.74
87.21
93.58
103.10
114.75
126.44
135.85
141.34
142.54
140.31
135.92
130.19
122.94
113.03
98.96
79.64
54.89
25.61
-6.50
-39.25
-70.26
-97.26
-118.25
-131.77
-137.30
-135.63
-129.00
-120.80
-114.66
-113.24
-117.27
-125.26
-134.14
-140.52
-141.91
-137.35
-127.35
-113.28
-96.76
-79.33
-62.50
-47.79
-36.63
-29.84
-27.16
-27.15
-27.57
-26.24
-21.79
-14.13
-4.30
5.98
15.04
21.78
25.99
28.24
29.56
31.08
33.65
37.87
44.03
52.27
62.53
74.57
87.91
101.75
114.97
126.18
134.04
137.60
136.77
132.53
126.74
121.50
118.32
117.40
117.56
116.63
112.41
103.41
89.35
71.03
49.87
27.39
4.74
-17.32
-38.39
-58.29
-76.74
-93.34
-107.49
-118.36
-124.97
-126.39
-122.24
-113.19
-101.31
-89.78
-81.95
-80.11
-84.47
-92.99
-102.16
-108.47
-109.62
-105.16
-96.13
-84.28
-71.35
-58.70
-47.38
-38.33
-32.24
-29.32
-29.01
-29.91
-30.22
-28.35
-23.46
-15.88
-6.89
1.72
8.34
12.19
13.64
14.06
15.27
18.81
25.41
34.85
46.10
57.64
67.68
74.46
76.58
73.40
65.49
54.78
44.17
36.61
34.03
36.56
42.50
49.00
53.11
52.74
46.97
36.05
20.93
2.90
-16.61
-36.14
-54.20
-69.35
-80.45
-86.95
-89.02
-87.35
-82.68
-75.37
-65.47
-53.30
-40.21
-28.88
-22.63
-23.97
-33.16
-47.61
-62.63
-73.42
-76.85
-72.62
-62.82
-50.68
-39.04
-29.61
-22.89
-18.76
-16.87
-16.71
-17.46
-17.94
-16.82
-13.14
-6.70
1.84
11.20
20.21
28.22
35.36
42.14
49.05
56.31
64.01
72.35
81.86
93.30
107.09
122.88
139.23
153.96
164.79
170.31
170.49
166.71
161.16
156.02
152.61
151.05
150.34
148.78
144.50
135.86
121.75
101.66
75.76
44.90
10.51
-25.57
-61.53
-95.77
-127.13
-154.80
-178.12
-196.49
-209.36
-216.43
-217.91
-214.56
-207.45
-197.78
-186.69
-175.15
-163.89
-153.30
-143.29
-133.34
-122.69
-110.80
-97.73
-84.13
-71.12
-59.65
-50.21
-42.60
-36.27
-30.63
-25.41
-20.56
-16.01
-11.44
-6.35
-0.44
5.98
11.95
16.45
19.24
21.56
25.89
34.77
49.23
67.81
86.98
102.98
113.83
120.43
125.73
132.63
141.83
151.23
157.05
156.11
147.62
133.48
117.05
101.21
86.92
73.16
57.92
39.62
18.25
-4.51
-26.03
-43.88
-56.92
-65.59
-71.24
-74.88
-76.00
-72.58
-62.54
-45.93
-26.08
-8.87
-0.13
-2.63
-14.62
-30.69
-44.54
-51.93
-52.20
-47.63
-41.58
-36.67
-33.99
-33.44
-34.42
-36.27
-38.28
-39.41
-38.49
-34.55
-27.52
-18.42
-9.15
-1.95
1.20
-0.91
-8.35
-19.75
-32.42
-42.68
-46.75
-41.89
-27.36
-4.68
22.88
51.56
78.37
102.02
122.65
141.03
157.45
171.25
181.20
186.52
187.69
186.58
185.64
186.57
189.48
192.73
193.60
189.48
178.75
161.21
138.04
111.53
84.66
60.68
42.51
32.01
29.35
32.67
38.42
42.31
40.62
31.31
14.56
-7.52
-31.63
-54.25
-72.42
-84.33
-89.50
-88.87
-84.66
-79.90
-77.93
-81.66
-92.88
-111.80
-136.96
-165.52
-193.63
-216.96
-231.26
-233.15
-221.02
-195.77
-160.86
-121.36
-82.53
-48.09
-19.49
3.93
23.91
42.20
59.97
78.01
97.15
118.28
141.62
166.02
188.94
207.38
219.50
225.35
226.54
224.71
220.20
211.87
198.44
180.19
159.81
141.67
129.68
125.20
126.21
128.27
126.53
117.72
101.07
78.01
51.21
23.43
-3.22
-27.65
-49.69
-69.69
-87.89
-104.23
-118.25
-129.48
-137.90
-143.96
-148.20
-150.65
-150.44
-145.82
-135.03
-117.44
-94.57
-70.31
-50.14
-39.30
-41.06
-55.40
-78.81
-105.17
-127.74
-141.10
-142.81
-134.15
-119.43
-104.54
-95.01
-94.41
-103.44
-119.70
-138.29
-152.95
-157.70
-148.53
-124.65
-88.70
-45.78
-1.51
40.25
78.31
113.63
147.13
177.59
200.82
211.10
203.59
176.65
132.92
78.69
22.24
-27.95
-64.49
-82.32
-79.44
-57.54
-21.88
19.93
60.05
92.67
115.29
128.58
134.69
135.57
132.27
125.26
115.48
104.75
95.10
87.45
80.58
71.31
55.74
31.42
-1.08
-38.58
-76.88
-112.95
-146.36
-178.96
-213.31
-250.89
-291.65
-334.13
-376.17
-415.15
-447.59
-469.23
-475.99
-466.00
-441.49
-409.11
-377.67
-354.41
-341.77
-336.52
-331.81
-320.84
-299.86
-268.99
-231.27
-190.89
-151.97
-118.08
-91.71
-74.43
-65.61
-62.75
-61.56
-56.90
-44.21
-20.52
14.51
58.35
105.28
147.72
178.24
192.70
192.45
184.35
177.84
180.64
195.08
216.73
237.01
247.90
246.23
235.07
221.49
212.10
209.04
209.11
205.83
193.30
169.42
136.42
98.99
60.74
22.61
-17.18
-60.78
-108.18
-156.24
-199.33
-231.82
-250.19
-253.86
-244.79
-226.54
-203.19
-178.72
-156.63
-139.56
-128.82
-123.61
-121.25
-117.81
-109.59
-94.78
-74.08
-50.31
-27.00
-6.95
8.65
19.98
27.62
31.60
31.26
25.96
16.22
4.43
-5.55
-9.70
-5.41
7.45
26.60
48.56
69.95
88.51
103.27
113.94
120.26
121.52
116.89
106.08
89.98
70.97
52.44
38.09
31.13
33.47
45.17
64.23
87.04
109.23
126.89
137.44
140.08
135.53
125.19
110.41
92.12
71.02
48.06
24.78
2.91
-16.26
-32.57
-46.90
-60.39
-73.47
-85.20
-93.61
-96.47
-92.52
-82.21
-67.63
-51.82
-37.69
-27.05
-20.21
-16.00
-12.30
-6.76
2.25
14.94
29.85
44.16
54.66
58.95
56.45
48.52
37.95
27.80
20.30
16.19
14.79
14.68
14.56
13.82
12.68
11.97
12.60
15.39
20.83
29.18
40.21
52.81
64.76
73.03
74.67
68.02
53.61
34.19
13.87
-3.40
-15.10
-20.79
-21.72
-19.99
-17.41
-14.88
-12.18
-8.42
-2.60
5.97
17.32
30.93
45.71
60.26
73.05
82.57
87.57
87.33
81.81
71.69
58.23
42.97
27.41
12.69
-0.64
-12.54
-23.34
-33.29
-42.22
-49.24
-52.92
-51.81
-45.28
-34.25
-21.07
-8.87
-0.22
3.90
4.46
3.75
4.14
6.97
12.06
18.10
23.51
27.22
29.03
29.25
28.21
25.87
21.94
16.32
9.47
2.41
-3.67
-7.97
-10.44
-11.64
-12.30
-12.86
-13.24
-13.05
-11.97
-10.07
-7.79
-5.82
-4.68
-4.59
-5.47
-7.10
-9.22
-11.30
-12.31
-10.67
-4.68
6.65
22.93
42.12
61.25
77.50
89.17
96.07
99.07
99.12
96.40
90.20
79.48
63.94
44.75
24.35
5.61
-9.39
-20.23
-27.98
-34.27
-40.17
-45.40
-48.38
-47.16
-40.53
-28.78
-13.77
1.62
14.35
22.08
23.82
20.21
13.40
6.35
1.76
1.08
4.03
8.95
13.77
17.17
19.00
20.04
21.21
22.73
23.90
23.52
20.69
15.41
8.84
2.94
-0.24
0.78
6.31
15.42
26.27
36.78
45.33
51.33
55.27
58.28
61.68
66.62
74.08
84.96
100.03
119.59
142.87
167.77
191.22
210.17
222.78
229.12
230.87
230.21
228.47
225.16
218.19
204.87
183.31
153.45
117.20
77.67
38.06
0.64
-33.79
-65.58
-95.63
-124.50
-151.94
-176.72
-196.94
-210.50
-215.53
-210.93
-196.85
-175.26
-150.02
-126.27
-108.91
-100.89
-101.99
-108.92
-116.74
-121.04
-119.58
-112.77
-102.80
-92.11
-82.27
-73.68
-66.21
-59.98
-55.76
-54.68
-57.52
-64.08
-72.85
-81.33
-86.82
-87.17
-81.57
-70.56
-55.56
-38.14
-19.32
0.44
20.81
41.13
60.47
78.32
95.25
112.82
132.61
154.88
177.65
197.16
209.56
212.84
207.83
197.82
186.92
178.26
173.02
170.49
168.77
165.67
159.14
147.54
129.76
105.45
75.21
40.54
3.58
-33.12
-66.93
-95.56
-117.26
-131.43
-138.68
-140.51
-138.43
-133.13
-124.23
-111.03
-93.81
-74.81
-58.18
-48.45
-48.56
-58.55
-75.72
-95.89
-115.33
-131.75
-144.18
-152.33
-155.87
-154.46
-148.22
-138.18
-126.17
-114.22
-103.87
-95.71
-89.38
-83.72
-77.20
-68.23
-55.65
-39.36
-20.64
-1.87
14.46
26.89
35.83
43.22
51.51
62.46
76.46
92.68
109.74
126.27
140.89
152.26
159.19
161.41
160.55
160.18
164.74
177.33
197.88
222.51
244.95
258.97
260.69
249.53
227.50
197.51
161.88
121.75
77.63
30.38
-18.19
-65.36
-108.25
-144.80
-174.23
-196.87
-213.51
-224.62
-230.00
-229.18
-222.45
-211.77
-200.91
-194.24
-194.64
-201.65
-211.09
-216.55
-212.31
-195.98
-169.44
-137.77
-106.71
-80.31
-59.96
-45.00
-34.25
-27.21
-24.16
-25.30
-29.77
-35.34
-39.10
-38.72
-33.37
-23.87
-12.13
-0.14
10.71
19.98
27.92
35.19
42.41
50.01
58.07
66.26
73.88
80.13
84.43
86.72
87.60
88.08
89.15
91.37
94.71
98.91
103.80
109.42
115.79
122.52
128.65
132.91
134.38
132.95
129.30
124.41
118.51
110.57
98.42
79.56
52.35
17.06
-23.66
-65.07
-101.42
-127.46
-140.04
-138.89
-126.66
-107.78
-87.08
-68.67
-55.38
-48.67
-48.69
-54.15
-62.24
-68.98
-70.28
-63.53
-48.91
-29.71
-11.14
1.72
5.88
1.43
-9.06
-21.85
-33.56
-42.24
-47.30
-49.12
-48.19
-44.73
-38.61
-29.80
-18.60
-5.70
8.04
21.82
35.08
47.27
57.55
64.71
67.52
65.41
59.12
50.78
43.19
38.80
38.80
43.08
50.80
61.10
73.45
87.33
101.66
114.64
124.11
128.42
127.09
120.95
111.34
99.20
84.32
65.52
41.43
11.57
-23.04
-59.63
-94.23
-122.59
-141.22
-148.30
-144.16
-131.08
-112.38
-91.55
-71.47
-54.31
-41.76
-35.00
-34.57
-39.71
-48.03
-55.96
-59.87
-57.60
-49.40
-37.80
-26.35
-18.05
-14.23
-14.44
-17.15
-20.90
-24.94
-29.29
-34.11
-39.07
-43.00
-44.11
-40.66
-31.75
-17.78
-0.39
18.23
36.02
51.60
64.29
73.79
79.81
82.01
80.21
74.87
67.22
59.01
52.02
47.59
46.67
49.97
58.03
70.91
87.70
106.32
123.80
137.34
145.32
147.85
146.30
142.35
136.79
129.20
118.31
102.87
82.33
56.98
27.91
-3.11
-33.62
-60.46
-80.17
-89.98
-88.81
-77.82
-60.35
-41.15
-25.27
-17.02
-18.96
-31.30
-51.85
-76.42
-99.99
-118.14
-128.33
-130.39
-126.12
-118.12
-108.76
-99.54
-91.33
-84.79
-80.64
-79.56
-81.62
-85.87
-90.34
-92.62
-90.61
-83.22
-70.71
-54.54
-36.71
-19.13
-3.03
11.17
23.76
35.71
48.26
62.77
80.08
99.94
120.31
137.83
148.78
150.73
144.17
133.03
123.85
123.55
136.63
162.94
197.33
231.32
256.23
266.27
260.17
240.70
212.47
179.49
143.67
104.91
62.37
15.60
-35.07
-89.08
-145.97
-204.67
-262.21
-312.54
-347.46
-359.38
-344.95
-307.34
-256.18
-204.40
-163.78
-141.14
-136.49
-144.05
-155.07
-161.31
-157.44
-142.17
-117.60
-87.87
-57.53
-30.35
-8.91
5.34
11.71
10.27
1.97
-11.03
-25.55
-38.27
-46.63
-49.78
-48.70
-45.43
-42.09
-39.88
-38.60
-36.92
-32.99
-25.41
-13.87
0.52
15.57
28.74
38.06
42.91
44.12
43.54
43.17
44.44
47.88
53.44
60.74
69.30
78.37
86.69
92.58
94.45
91.41
83.83
73.11
61.04
48.93
37.04
24.78
11.51
-2.70
-16.77
-29.13
-38.50
-44.70
-48.72
-52.22
-56.54
-61.83
-66.72
-68.86
-65.98
-57.10
-43.16
-26.78
-11.21
1.08
9.34
14.62
19.00
24.38
31.43
39.39
46.75
52.34
56.08
58.85
61.56
64.18
65.36
62.91
55.12
41.86
24.96
7.69
-6.54
-15.25
-17.56
-14.04
-6.09
4.80
17.50
31.23
45.26
58.51
69.59
77.12
80.45
80.10
77.83
75.87
75.92
78.47
82.95
88.56
95.33
104.20
116.39
132.19
150.07
167.00
179.62
185.73
185.22
179.76
171.77
163.16
154.48
144.91
132.72
115.97
93.08
63.31
26.96
-14.59
-58.79
-102.04
-140.02
-168.46
-184.10
-186.16
-177.19
-163.11
-151.75
-150.18
-161.83
-184.80
-212.35
-235.55
-246.79
-242.64
-224.68
-198.13
-169.22
-142.68
-120.49
-102.27
-86.66
-72.69
-60.48
-50.85
-44.41
-40.86
-38.98
-37.26
-34.64
-30.88
-26.26
-20.86
-14.06
-4.48
9.18
27.19
48.26
69.84
88.99
103.51
112.67
117.17
118.77
119.63
122.00
127.93
138.75
154.38
172.94
190.96
204.50
210.67
208.75
200.39
188.55
175.94
163.64
150.71
134.90
113.95
86.74
53.73
16.71
-21.99
-60.12
-95.75
-127.32
-153.58
-173.81
-188.30
-198.67
-207.65
-217.87
-230.47
-244.06
-255.11
-259.51
-254.59
-240.27
-218.81
-193.38
-166.35
-138.64
-110.31
-81.76
-54.54
-31.23
-14.35
-5.21
-3.46
-7.32
-14.42
-22.41
-29.06
-32.28
-30.33
-22.34
-8.79
8.34
26.28
42.41
55.21
64.43
70.63
74.35
75.77
74.91
72.21
69.08
67.54
69.35
75.12
84.02
94.38
104.76
114.66
124.45
134.74
145.53
155.74
163.54
167.07
165.08
157.40
144.81
128.59
110.27
91.37
73.05
55.75
38.68
19.65
-4.43
-36.08
-75.52
-119.42
-161.04
-192.09
-205.66
-198.96
-174.42
-139.00
-101.85
-71.58
-54.16
-51.78
-62.84
-82.78
-105.43
-124.52
-135.34
-135.67
-126.14
-109.47
-89.26
-68.77
-50.24
-35.08
-24.23
-18.37
-17.73
-21.62
-28.15
-34.63
-38.35
-37.47
-31.44
-20.95
-7.30
8.19
24.47
40.81
56.42
70.30
81.31
88.60
92.01
92.14
90.24
87.62
85.39
84.42
85.59
89.96
98.45
111.15
126.75
142.43
154.74
160.85
159.82
152.83
142.48
131.25
120.19
108.36
93.43
72.90
45.32
10.89
-28.54
-69.95
-109.69
-143.89
-169.10
-183.04
-185.39
-178.17
-165.28
-151.38
-140.26
-133.66
-130.97
-129.93
-127.73
-122.17
-112.20
-97.89
-80.07
-60.02
-39.28
-19.58
-2.60
10.43
19.10
23.81
25.50
24.98
22.45
17.43
9.31
-1.92
-15.08
-27.68
-36.62
-39.11
-33.66
-20.60
-1.88
19.55
40.65
59.02
73.32
83.22
89.15
91.78
91.64
88.98
83.68
75.59
64.91
52.81
41.65
34.72
35.14
44.43
61.59
82.98
103.45
118.07
123.75
119.87
107.81
89.70
67.17
40.81
10.43
-23.84
-60.53
-96.26
-126.24
-145.72
-151.66
-144.01
-125.73
-101.61
-76.36
-53.22
-34.09
-20.49
-14.56
-18.77
-34.30
-59.08
-87.15
-109.92
-119.45
-111.81
-88.73
-56.76
-24.41
1.03
15.71
19.47
14.75
4.93
-6.93
-18.68
-28.98
-37.03
-42.42
-44.93
-44.68
-42.11
-37.82
-32.30
-25.71
-17.82
-8.40
2.49
14.17
25.44
34.88
41.42
44.82
45.77
45.76
46.60
49.78
55.90
64.29
73.26
80.77
85.20
85.98
83.70
79.70
75.29
71.19
67.27
62.75
56.59
47.82
35.90
20.92
3.78
-13.77
-29.49
-41.32
-48.19
-50.36
-49.26
-46.58
-43.22
-38.82
-31.95
-21.17
-6.31
10.84
26.75
37.30
39.46
32.54
18.46
1.02
-15.42
-27.38
-32.97
-31.96
-25.34
-14.80
-2.20
10.61
21.93
30.43
35.24
36.14
33.50
28.18
21.25
13.67
6.06
-1.41
-9.04
-17.42
-27.11
-38.28
-50.35
-61.86
-70.70
-74.68
-72.34
-63.62
-50.16
-34.91
-21.15
-11.18
-5.58
-3.01
-1.09
2.32
8.11
15.72
23.84
31.44
38.45
45.51
53.39
62.13
70.84
78.16
82.85
84.25
82.05
75.99
65.68
50.90
32.31
11.78
-7.87
-23.87
-34.48
-39.60
-40.39
-38.40
-34.60
-29.13
-21.69
-12.19
-1.41
9.07
17.34
21.98
22.66
20.25
16.40
12.95
11.43
12.58
16.39
22.16
28.63
34.31
37.87
38.34
35.46
29.65
21.76
12.77
3.49
-5.61
-14.32
-22.54
-30.18
-37.15
-43.47
-49.49
-55.74
-62.59
-69.90
-76.64
-81.12
-81.48
-76.55
-66.51
-53.08
-38.94
-26.54
-17.18
-10.32
-3.96
4.24
15.97
31.46
49.63
68.68
86.76
102.27
113.93
120.83
122.53
119.20
111.66
101.03
88.13
72.95
54.76
32.83
7.43
-19.57
-44.98
-65.44
-78.79
-84.89
-85.48
-83.18
-80.12
-77.05
-73.22
-66.84
-56.17
-40.30
-19.57
4.36
28.99
51.55
69.69
82.08
88.79
91.17
91.10
90.14
88.91
87.02
83.69
78.52
71.99
65.18
59.04
53.58
47.72
39.81
28.60
13.97
-2.83
-19.85
-35.38
-48.75
-60.48
-71.75
-83.41
-95.26
-105.84
-113.08
-115.32
-112.16
-104.56
-94.22
-82.39
-69.19
-53.57
-34.19
-10.46
16.83
45.73
73.97
99.79
122.42
141.99
158.98
173.81
186.60
197.10
204.78
208.82
208.15
201.63
188.30
167.53
139.25
103.88
62.39
16.67
-30.03
-73.16
-107.61
-129.16
-135.68
-127.82
-108.75
-83.22
-56.28
-32.16
-13.48
-0.94
6.58
11.39
16.19
22.98
32.27
42.97
52.90
59.63
61.16
56.26
44.55
26.62
4.28
-19.11
-39.24
-51.98
-54.79
-47.63
-32.71
-13.36
7.47
28.33
49.54
72.46
98.63
129.01
163.68
201.78
241.46
279.82
313.13
337.43
349.59
348.28
334.54
311.42
282.94
252.80
223.54
196.37
171.65
149.43
129.96
113.60
100.61
90.86
83.80
78.70
75.01
72.46
71.07
70.94
71.90
73.37
74.38
73.83
70.86
65.15
57.13
47.76
38.20
29.24
20.92
12.45
2.46
-10.38
-26.75
-46.27
-67.56
-88.62
-107.60
-123.36
-135.75
-145.50
-153.76
-161.74
-170.39
-180.38
-192.00
-205.11
-218.99
-232.50
-244.52
-254.74
-264.21
-275.35
-291.02
-313.12
-341.38
-373.13
-404.18
-430.23
-447.94
-455.18
-450.73
-433.50
-402.42
-356.69
-296.54
-224.07
-143.68
-61.92
13.39
74.44
115.10
132.21
126.39
101.75
64.80
22.80
-17.83
-52.59
-79.45
-98.62
-112.18
-123.20
-134.72
-148.77
-165.99
-185.78
-206.61
-226.66
-243.58
-254.27
-254.62
-240.67
-210.85
-168.16
-120.24
-76.49
-43.75
-23.11
-10.45
-0.35
8.92
13.55
6.67
-15.91
-51.03
-88.20
-114.53
-121.65
-109.96
-87.41
-63.74
-43.99
-25.93
-2.51
32.21
78.00
126.92
166.16
183.40
171.43
130.33
66.69
-8.85
-84.34
-148.62
-193.00
-212.18
-205.03
-174.50
-126.74
-69.54
-10.19
46.08
96.73
141.64
182.55
222.53
265.10
312.91
365.85
419.75
466.57
496.71
502.55
481.44
436.86
376.71
310.26
244.94
184.75
130.42
80.73
33.82
-12.09
-58.56
-106.68
-156.65
-207.47
-256.92
-302.20
-340.59
-369.91
-388.62
-395.55
-389.99
-371.71
-341.21
-299.60
-248.50
-190.01
-127.31
-65.23
-10.36
30.14
50.90
50.90
34.82
12.10
-5.98
-9.86
5.44
39.50
87.26
140.75
191.11
230.23
251.96
252.99
232.95
193.81
138.71
71.03
-5.56
-85.80
-162.35
-226.03
-267.98
-282.84
-271.19
-239.74
-198.47
-156.60
-118.62
-83.56
-46.51
-1.84
53.55
118.16
185.69
246.76
291.28
312.63
308.74
283.15
243.48
197.98
151.98
106.04
56.98
0.46
-61.76
-123.11
-172.55
-198.75
-194.66
-160.43
-103.15
-34.59
29.90
80.72
109.34
112.12
91.07
53.95
12.06
-23.48
-46.03
-59.64
-68.19
-82.64
-112.16
-159.81
-221.12
-286.02
-342.67
-381.64
-402.71
-401.56
-382.32
-350.24
-309.56
-262.54
-210.06
-153.28
-68.22
3.41
58.91
91.16
96.77
77.08
37.28
-16.04
-76.59
-138.91
-201.92
-254.27
-288.50
-298.11
-280.38
-238.32
-180.46
-118.11
-61.64
-20.70
7.30
25.42
38.95
53.34
72.83
99.88
134.91
175.94
216.29
251.69
275.13
281.73
271.05
247.86
220.76
199.10
189.52
192.72
206.88
226.25
245.12
259.81
269.20
273.93
275.03
272.96
266.85
256.33
241.15
222.43
202.60
184.54
170.13
159.21
149.78
139.40
127.10
114.19
103.66
98.30
98.79
103.01
106.95
106.61
99.53
85.23
64.60
39.11
10.52
-19.08
-47.12
-71.12
-89.20
-100.72
-106.11
-106.22
-101.64
-92.34
-77.83
-57.33
-29.86
5.74
50.38
103.85
163.46
223.42
275.42
310.73
322.78
309.17
272.19
217.86
154.11
89.10
29.99
-17.51
-49.44
-63.84
-60.98
-43.30
-15.00
18.90
53.62
85.42
111.90
131.75
144.22
148.69
144.63
131.79
110.58
82.32
49.07
13.15
-23.65
-60.44
-97.24
-134.73
-173.74
-214.80
-257.76
-301.44
-343.56
-380.91
-409.88
-427.51
-432.63
-426.44
-412.41
-395.19
-378.74
-364.77
-351.92
-336.29
-312.90
-278.13
-231.81
-178.29
-125.85
-84.21
-61.13
-59.15
-74.22
-96.80
-115.21
-119.61
-104.84
-71.12
-22.79
33.94
93.03
149.64
200.57
244.13
280.09
309.26
332.49
349.33
356.90
350.40
325.08
279.03
215.32
142.20
71.01
12.68
-25.36
-40.92
-36.70
-18.76
5.52
29.12
46.55
54.33
51.39
39.24
21.79
4.48
-7.38
-10.67
-5.72
3.96
13.45
18.96
19.91
19.07
20.65
27.38
38.18
48.18
50.86
41.30
18.67
-13.36
-48.27
-79.42
-102.42
-116.04
-121.55
-121.11
-115.85
-104.92
-85.83
-56.10
-15.35
33.14
82.39
123.38
147.52
148.97
126.09
81.57
21.78
-44.27
-106.27
-154.35
-180.87
-182.12
-158.81
-115.31
-58.08
6.10
71.06
131.41
182.34
219.53
239.49
239.92
220.23
181.99
129.45
69.71
12.17
-33.20
-58.65
-61.35
-44.41
-15.81
14.65
38.64
51.46
52.26
42.86
26.43
6.57
-12.97
-28.56
-37.56
-39.12
-34.50
-26.23
-16.54
-6.18
5.67
19.99
36.00
50.19
57.08
51.71
32.51
2.72
-30.46
-58.61
-75.48
-79.20
-72.48
-60.73
-49.33
-41.29
-36.40
-31.90
-24.46
-11.94
5.46
25.40
44.55
59.73
68.64
69.66
61.54
43.35
15.24
-20.31
-57.96
-90.03
-108.53
-107.58
-85.31
-44.22
9.67
68.20
122.51
164.33
187.12
187.34
165.56
126.70
79.21
32.95
-3.47
-24.73
-29.89
-22.10
-7.26
7.66
16.56
15.61
4.07
-15.61
-38.72
-59.67
-73.60
-77.65
-71.58
-57.55
-39.17
-20.20
-3.38
10.39
21.82
32.41
43.19
53.68
61.67
63.81
57.18
40.83
16.67
-10.85
-36.21
-54.64
-63.91
-64.87
-60.86
-56.48
-56.06
-62.65
-77.38
-99.05
-124.02
-146.91
-162.38
-167.43
-162.86
-152.95
-142.97
-135.97
-130.73
-122.16
-103.91
-71.76
-25.89
29.14
86.23
138.48
181.37
213.62
236.82
254.11
268.77
283.09
297.90
313.06
328.52
345.04
364.00
385.80
408.23
425.99
432.06
420.69
390.08
343.36
287.33
229.42
175.16
126.63
82.88
41.47
0.14
-42.33
-86.21
-131.43
-178.02
-225.92
-274.11
-319.90
-358.78
-385.51
-395.90
-388.62
-365.81
-332.30
-293.72
-254.47
-216.70
-180.60
-145.70
-112.20
-81.51
-55.64
-36.06
-22.70
-13.81
-6.77
0.72
9.68
19.70
29.45
37.54
43.00
45.33
44.22
39.38
31.13
20.97
11.80
7.26
10.26
21.62
39.64
61.05
82.70
103.16
123.01
143.98
167.46
193.41
220.48
246.81
271.03
292.37
310.20
323.18
329.03
325.16
309.84
283.15
247.27
205.80
162.50
120.18
80.15
42.45
6.56
-28.04
-61.53
-93.89
-125.32
-156.47
-188.27
-221.29
-255.16
-288.06
-316.85
-337.64
-346.57
-340.67
-318.52
-280.60
-229.37
-169.08
-105.23
-43.64
10.69
54.70
87.80
111.85
130.20
146.48
163.52
182.79
204.27
226.77
248.12
265.60
276.35
278.13
269.88
252.19
227.26
198.06
167.44
137.17
107.54
77.64
46.26
13.13
-20.27
-50.67
-74.17
-87.85
-91.42
-87.71
-81.86
-79.25
-83.40
-94.69
-110.72
-127.92
-143.43
-156.28
-167.23
-177.77
-189.00
-201.13
-213.73
-226.42
-239.35
-253.00
-267.65
-282.58
-295.89
-305.11
-308.29
-304.98
-296.54
-285.59
-274.90
-266.29
-260.23
-256.04
-252.70
-249.46
-245.94
-241.94
-236.93
-230.10
-220.76
-209.08
-196.43
-185.15
-177.67
-175.49
-178.64
-185.76
-194.86
-204.22
-212.98
-221.15
-229.11
-237.05
-244.66
-251.14
-255.45
-256.56
-253.52
-245.53
-232.08
-212.99
-188.60
-159.67
-127.32
-92.69
-56.83
-20.53
15.82
52.15
88.58
125.05
160.88
194.58
224.08
247.48
263.92
273.95
279.18
281.23
280.59
276.25
266.23
248.73
223.21
190.42
151.54
107.33
58.05
4.22
-51.81
-105.09
-148.75
-176.08
-182.78
-168.67
-137.66
-96.48
-52.73
-12.94
18.51
39.93
52.22
58.31
62.31
68.37
79.33
95.85
116.13
136.48
152.53
160.53
158.38
146.16
125.86
100.78
74.53
50.18
29.59
13.26
0.59
-9.72
-19.24
-29.10
-39.44
-49.03
-55.27
-54.87
-44.80
-23.34
9.53
52.35
102.71
157.64
213.61
266.29
310.51
340.94
353.49
346.83
323.19
287.91
247.80
208.98
175.28
147.58
124.45
103.27
81.29
56.26
26.52
-9.01
-50.72
-97.94
-148.52
-198.68
-243.52
-278.10
-298.59
-303.13
-291.95
-266.81
-230.29
-185.16
-134.29
-80.86
-28.59
18.20
54.98
77.75
84.07
73.81
49.72
17.31
-16.04
-42.73
-56.98
-56.65
-43.99
-24.92
-7.01
3.10
1.80
-10.62
-30.53
-52.50
-71.22
-83.06
-86.81
-83.60
-76.18
-67.75
-60.76
-55.98
-52.19
-46.69
-36.57
-20.05
2.64
29.21
56.12
79.89
98.41
111.72
122.05
132.97
147.93
168.41
192.90
216.97
235.01
242.70
238.94
226.40
209.91
193.94
180.31
167.73
153.02
133.47
108.48
79.68
49.86
21.31
-4.85
-28.21
-47.79
-60.98
-63.72
-51.85
-23.02
21.66
76.94
134.29
183.64
215.72
224.15
206.96
167.04
111.43
49.50
-9.39
-57.97
-92.44
-112.52
-120.75
-121.09
-117.82
-114.76
-114.90
-120.19
-131.18
-146.80
-164.47
-180.56
-191.46
-194.49
-188.71
-175.15
-156.32
-135.27
-114.33
-94.21
-73.73
-50.62
-22.81
10.40
47.83
86.83
124.35
158.17
187.34
211.85
231.51
245.13
250.68
246.33
232.04
210.44
186.43
165.32
150.56
142.10
136.58
128.99
115.28
94.26
68.03
40.79
17.01
-0.23
-9.75
-11.78
-6.79
5.30
25.29
54.06
91.41
135.17
180.86
222.38
253.44
269.13
266.86
246.55
210.43
162.71
109.55
58.73
18.64
-3.52
-3.98
16.03
50.36
89.62
124.12
146.57
153.85
147.00
130.19
108.98
88.68
73.10
63.76
59.75
58.21
55.39
47.89
33.63
11.75
-17.58
-53.63
-95.09
-139.57
-183.12
-220.39
-245.88
-255.79
-249.59
-230.38
-203.99
-177.10
-155.28
-141.97
-138.37
-144.03
-157.48
-176.54
-198.40
-219.95
-238.59
-253.27
-265.24
-277.91
-295.83
-322.84
-360.34
-406.20
-454.96
-499.21
-531.64
-546.94
-542.96
-520.81
-483.95
-436.90
-383.99
-328.71
-273.51
-220.00
-169.24
-121.81
-77.81
-36.79
2.15
40.11
78.01
116.41
155.53
195.53
236.60
278.92
322.08
364.78
404.74
439.26
466.28
485.19
497.09
504.26
509.12
513.11
516.82
519.83
521.43
521.09
518.43
512.84
503.31
488.54
467.32
439.74
407.08
371.74
336.49
303.54
273.87
247.11
222.06
196.91
171.17
144.85
118.73
93.92
71.18
50.51
31.09
11.60
-10.45
-34.70
-60.87
-87.62
-113.18
-136.19
-156.33
-174.63
-192.94
-215.78
-242.28
-272.15
-303.36
-332.99
-358.54
-378.96
-394.91
-408.50
-427.12
-451.11
-483.41
-524.65
-572.42
-621.32
-663.73
-691.51
-698.54
-688.97
-662.33
-625.43
-584.47
-542.72
-500.01
-453.64
-400.39
-311.84
-226.89
-147.06
-79.48
-29.10
2.63
17.39
19.06
12.54
16.81
40.06
90.45
160.38
236.71
308.59
370.87
422.58
464.32
495.99
511.87
514.28
504.03
484.75
461.11
436.75
413.39
391.04
368.02
339.08
304.68
264.92
221.81
177.99
135.08
92.63
54.61
22.47
-4.88
-26.55
-42.60
-52.97
-57.93
-58.42
-56.34
-54.49
-57.36
-70.06
-95.15
-131.75
-173.98
-211.98
-235.03
-235.57
-211.92
-169.55
-118.20
-68.27
-27.56
0.14
14.76
18.48
14.28
5.28
-5.89
-16.26
-22.76
-22.76
-15.03
-0.50
18.04
36.76
52.75
65.39
76.84
90.26
107.14
125.23
138.81
141.85
132.06
113.33
94.43
84.93
89.82
106.79
127.21
139.95
136.93
116.43
83.16
45.32
11.10
-14.53
-30.06
-36.58
-37.39
-35.70
-34.03
-34.07
-36.94
-42.49
-49.89
-56.56
-58.82
-56.16
-50.63
-46.32
-47.77
-57.96
-76.17
-100.85
-129.51
-160.46
-197.31
-244.21
-302.20
-366.76
-428.81
-476.57
-503.82
-509.22
-495.28
-470.96
-444.26
-419.29
-396.17
-373.72
-350.00
-328.70
-313.96
-279.68
-209.03
-99.34
34.57
169.12
270.40
338.35
377.41
392.53
389.14
371.98
345.17
313.96
283.37
256.03
233.08
209.94
182.65
150.70
113.45
71.88
28.31
-14.32
-53.16
-84.30
-107.13
-121.79
-128.81
-131.93
-135.68
-143.29
-155.71
-171.34
-186.26
-198.17
-205.46
-207.17
-203.97
-196.97
-186.96
-174.32
-159.45
-142.62
-125.15
-108.04
-91.38
-74.80
-57.79
-40.08
-22.13
-5.02
10.21
22.84
33.27
43.13
54.73
70.17
90.62
115.68
143.44
170.75
194.11
210.45
217.78
215.56
204.92
188.62
170.55
154.59
143.06
135.64
129.44
120.50
106.02
86.42
65.31
47.92
38.47
38.25
45.22
55.42
65.17
72.66
78.44
84.07
90.66
97.81
103.70
105.93
102.59
93.16
78.89
62.59
47.26
34.99
26.29
20.32
15.85
12.10
9.25
8.35
11.76
20.91
35.41
52.94
70.46
85.58
97.24
105.49
110.66
115.47
122.04
131.35
143.29
157.05
171.63
185.72
197.36
204.31
209.15
215.01
224.32
237.72
254.47
273.74
295.12
317.95
340.22
364.05
389.29
413.33
432.32
443.69
448.56
450.77
453.76
429.56
361.72
249.63
112.09
-23.91
-138.32
-223.09
-279.79
-311.96
-331.31
-340.71
-340.86
-333.39
-322.72
-314.84
-313.14
-316.21
-319.39
-317.95
-304.44
-276.76
-238.95
-196.09
-155.91
-122.13
-91.79
-58.49
-20.12
24.98
73.38
118.58
153.92
173.51
175.96
164.18
143.18
117.33
91.08
66.46
43.81
22.53
1.72
-18.23
-35.95
-49.93
-59.27
-63.12
-62.23
-59.22
-58.14
-63.25
-76.73
-97.99
-124.35
-152.55
-179.85
-205.11
-228.49
-250.65
-272.30
-293.83
-315.98
-340.01
-367.08
-396.87
-426.66
-451.48
-465.70
-465.18
-449.04
-420.18
-384.29
-347.84
-315.90
-290.75
-271.63
-255.53
-238.67
-217.96
-192.06
-161.66
-128.99
-96.91
-67.87
-43.16
-22.81
-5.87
9.08
23.37
37.82
52.58
67.22
80.94
93.07
103.39
112.28
120.45
128.45
136.23
143.17
148.43
151.57
153.06
154.51
158.48
167.85
184.86
210.02
241.14
273.08
298.61
310.41
303.57
277.77
237.88
192.63
151.61
122.05
106.76
103.95
108.82
115.77
120.29
119.97
114.53
105.44
95.29
87.40
85.09
91.01
105.92
128.21
153.91
177.63
194.16
199.58
192.15
172.27
142.02
104.77
64.59
25.74
-8.04
-34.36
-52.84
-65.13
-74.23
-83.05
-92.98
-102.90
-109.39
-108.02
-95.27
-70.50
-36.78
-0.28
31.69
53.28
62.22
60.40
52.85
45.63
43.39
47.99
58.40
71.83
85.41
97.24
106.55
113.01
115.82
113.42
104.03
86.89
63.39
37.28
13.58
-3.36
-11.79
-13.22
-11.67
-11.62
-16.08
-25.47
-38.03
-51.06
-62.36
-71.05
-77.58
-83.15
-88.94
-95.71
-103.62
-112.47
-121.97
-131.81
-141.63
-150.98
-159.17
-165.47
-169.19
-170.00
-168.06
-163.94
-158.46
-152.26
-145.59
-138.28
-130.07
-121.02
-111.82
-103.77
-98.38
-96.57
-98.20
-101.86
-105.36
-106.52
-103.84
-96.79
-85.35
-69.54
-49.15
-24.01
5.40
37.67
70.87
103.61
135.91
169.06
204.44
241.66
277.64
307.21
325.11
328.36
317.31
294.99
265.08
230.04
190.42
145.72
96.02
43.19
-8.91
-55.40
-91.68
-114.73
-123.69
-119.86
-106.34
-87.00
-65.30
-43.30
-21.65
-0.29
20.10
37.32
47.99
49.07
39.86
22.95
3.57
-12.53
-21.32
-21.96
-16.59
-8.74
-1.42
4.13
8.38
12.56
17.21
21.43
23.08
19.80
10.54
-3.66
-19.79
-34.23
-44.33
-49.57
-51.74
-53.73
-58.30
-66.79
-78.71
-91.92
-103.06
-107.90
-101.77
-80.58
-42.59
9.67
68.86
124.05
164.02
181.17
173.85
146.38
106.29
60.63
12.91
-37.36
-92.59
-153.62
-216.79
-273.64
-313.32
-326.93
-311.70
-272.62
-220.50
-167.73
-123.36
-90.30
-65.97
-45.52
-25.60
-6.41
8.97
17.09
16.27
7.65
-5.94
-21.30
-35.69
-46.46
-50.42
-44.03
-24.78
7.23
48.75
94.14
137.07
172.56
198.45
215.84
228.33
240.40
255.51
274.73
296.15
315.71
328.74
331.84
324.05
306.87
283.32
256.55
228.85
201.51
175.17
150.21
126.56
103.26
78.41
49.72
15.27
-25.86
-73.45
-126.41
-183.47
-243.54
-305.35
-366.72
-423.80
-470.87
-501.46
-510.06
-494.37
-456.35
-401.82
-338.49
-273.46
-211.43
-154.39
-102.56
-55.85
-14.75
19.56
46.02
64.34
75.14
79.25
76.98
67.73
50.53
25.41
-5.45
-37.56
-65.50
-85.38
-96.97
-104.28
-113.79
-130.88
-156.47
-185.66
-209.43
-218.71
-208.75
-181.41
-144.18
-106.54
-75.44
-52.39
-33.59
-12.15
18.67
62.98
121.27
190.18
262.85
329.55
379.43
403.72
399.45
371.94
334.13
302.44
290.31
302.73
334.34
372.08
400.89
409.62
394.18
357.32
305.69
246.33
184.64
124.09
67.12
16.10
-26.46
-58.93
-81.47
-96.43
-108.20
-121.84
-141.68
-170.08
-206.71
-248.55
-290.71
-327.62
-354.46
-368.29
-368.48
-356.33
-334.06
-303.89
-267.89
-228.62
-190.03
-157.27
-135.33
-126.91
-130.64
-141.01
-150.30
-151.74
-142.30
-123.78
-101.66
-82.29
-70.01
-65.81
-68.33
-75.84
-88.00
-105.92
-130.72
-161.60
-195.12
-226.18
-250.26
-265.63
-273.94
-278.91
-283.85
-289.74
-294.80
-295.85
-290.11
-276.36
-255.22
-228.09
-196.18
-160.00
-119.39
-73.96
-24.02
28.74
80.94
127.93
165.07
189.38
200.73
202.02
198.00
193.24
190.29
189.05
187.54
183.54
176.20
166.51
156.59
148.30
142.22
137.40
132.07
124.77
115.00
103.52
91.84
81.64
74.25
70.57
71.05
75.68
84.04
94.63
104.76
110.82
109.39
98.64
79.49
55.71
33.02
17.23
12.03
17.94
32.74
53.11
76.28
100.83
125.98
150.54
172.50
188.57
195.46
191.59
178.13
158.78
138.18
120.00
106.43
99.59
100.14
107.12
117.67
127.57
132.49
129.36
117.53
100.20
86.23
83.89
96.98
123.07
155.44
187.14
214.20
236.17
256.38
282.94
319.81
364.16
407.77
442.44
464.71
476.24
479.76
477.64
475.33
474.61
474.46
472.93
469.95
467.77
468.55
470.90
432.96
331.93
172.87
-12.08
-185.86
-326.26
-428.76
-492.60
-531.99
-555.86
-562.72
-551.04
-522.87
-484.45
-443.31
-404.45
-370.42
-343.41
-322.97
-303.08
-278.43
-246.88
-210.90
-175.57
-146.15
-125.86
-115.51
-111.09
-103.75
-86.46
-57.88
-27.03
-5.54
-2.05
-16.90
-42.21
-65.72
-76.69
-71.64
-54.71
-34.53
-18.94
-11.95
-13.17
-19.60
-26.51
-28.53
-20.54
-0.92
28.29
61.04
88.34
101.60
95.75
71.99
37.52
3.38
-20.10
-26.92
-16.74
5.80
33.56
59.45
77.83
83.69
74.46
50.54
15.37
-25.25
-64.59
-96.51
-116.61
-123.17
-117.22
-101.89
-81.82
-62.01
-46.60
-38.08
-36.67
-40.52
-46.18
-49.87
-48.67
-41.28
-28.38
-11.70
6.75
25.36
42.86
57.97
69.36
76.38
79.70
81.66
85.34
92.93
104.30
116.75
126.52
131.14
131.26
130.90
135.69
150.39
176.65
212.21
251.75
288.62
316.77
332.26
333.87
322.80
301.81
274.13
242.58
209.34
176.06
144.33
115.70
91.48
72.14
56.95
44.17
31.69
17.81
1.81
-16.03
-34.81
-53.45
-71.26
-88.11
-104.36
-120.65
-137.57
-155.35
-173.78
-192.19
-209.65
-225.23
-238.39
-249.07
-257.76
-265.29
-272.50
-280.00
-288.24
-297.71
-309.10
-322.94
-339.01
-355.58
-369.31
-375.95
-371.94
-356.08
-330.25
-298.97
-267.76
-241.24
-221.92
-210.25
-205.30
-205.64
-209.52
-214.40
-216.48
-211.01
-193.79
-163.11
-121.18
-73.95
-29.30
5.77
27.29
35.27
32.86
24.49
14.10
4.02
-4.94
-13.00
-20.71
-28.53
-36.47
-43.96
-50.24
-54.71
-57.35
-58.73
-59.63
-60.63
-61.98
-63.02
-62.40
-58.56
-50.19
-36.37
-16.57
9.29
40.52
74.42
107.94
138.53
164.71
186.10
203.04
216.27
226.62
234.72
239.13
239.23
235.44
228.48
218.08
202.54
179.84
148.93
110.47
63.41
8.64
-51.15
-112.36
-171.77
-226.78
-274.78
-312.95
-338.95
-355.67
-365.47
-368.67
-363.82
-349.85
-327.59
-299.76
-270.31
-218.11
-138.46
-42.73
48.73
120.77
169.17
197.15
210.39
214.12
212.22
203.25
186.85
165.12
142.17
121.51
104.87
92.69
84.54
79.65
74.23
66.20
55.58
45.37
38.24
35.27
36.54
41.15
47.67
52.78
54.42
52.63
49.15
45.83
43.75
43.67
45.48
48.57
51.37
53.08
54.36
57.24
64.54
74.95
88.74
106.02
126.39
148.19
168.86
185.27
194.58
194.87
185.93
170.14
151.14
132.73
117.72
107.10
100.09
94.66
88.52
79.99
69.05
56.78
44.85
34.83
27.38
21.86
16.66
10.00
0.69
-11.19
-25.02
-40.05
-55.54
-70.47
-83.06
-90.66
-90.54
-81.35
-64.15
-42.95
-23.42
-10.81
-7.98
-14.56
-27.61
-43.31
-58.56
-71.78
-82.78
-91.98
-99.70
-105.91
-110.28
-112.66
-113.34
-113.01
-112.40
-111.95
-111.62
-111.06
-110.03
-108.73
-107.79
-107.86
-109.12
-110.85
-111.54
-109.48
-103.46
-93.32
-79.91
-64.59
-48.66
-32.88
-17.58
-3.00
10.42
21.87
30.49
35.71
37.53
36.48
33.37
29.02
24.04
18.79
13.48
8.17
2.92
-2.37
-7.88
-13.91
-20.68
-28.23
-36.25
-43.95
-50.20
-53.75
-53.63
-49.49
-41.72
-31.33
-19.51
-7.21
5.16
17.60
30.26
43.02
55.35
66.44
75.50
82.10
86.30
88.61
89.64
90.04
90.31
90.80
91.73
92.99
94.06
93.93
91.38
85.43
75.91
63.73
50.82
39.56
32.04
29.40
31.56
37.42
45.42
54.10
62.46
70.03
76.62
82.16
86.49
89.42
90.76
90.46
88.78
86.18
83.26
80.57
78.41
76.82
75.61
74.56
73.55
72.65
72.05
72.02
72.98
75.55
80.62
89.17
101.95
118.94
139.03
160.20
180.15
196.88
209.23
217.00
220.75
221.49
220.19
217.53
213.81
209.36
204.94
201.69
200.72
202.37
205.46
207.30
204.42
193.93
174.78
148.24
117.25
85.20
54.57
26.22
-0.71
-27.96
-57.35
-89.98
-125.88
-164.27
-203.32
-239.95
-269.47
-286.23
-284.60
-261.46
-218.21
-161.70
-102.77
-52.63
-18.56
-1.79
1.29
-3.16
-9.68
-15.25
-19.28
-23.33
-30.51
-44.63
-69.56
-108.48
-160.31
-218.01
-268.90
-297.96
-293.53
-251.39
-174.86
-73.25
40.69
148.46
227.27
257.76
234.82
171.24
90.90
18.97
-23.06
-33.97
-21.09
3.60
27.75
42.38
43.61
29.47
3.61
-27.46
-57.88
-82.70
-99.20
-106.07
-102.70
-89.91
-70.77
-49.83
-32.59
-24.00
-25.44
-34.50
-45.50
-51.50
-47.13
-30.62
-3.74
28.66
60.21
86.01
103.72
114.02
119.82
124.54
130.48
138.33
147.09
154.73
159.56
160.67
158.11
152.74
145.88
138.88
133.03
129.08
127.05
126.29
125.65
123.92
120.32
114.65
107.16
98.31
88.34
77.25
64.93
51.64
38.24
26.08
16.43
9.66
4.83
-0.14
-7.57
-18.95
-34.23
-52.04
-70.50
-88.28
-105.15
-121.65
-138.36
-155.22
-171.40
-185.80
-197.72
-207.28
-215.17
-222.20
-228.64
-234.26
-238.49
-240.90
-241.51
-240.59
-238.36
-234.64
-228.82
-220.23
-208.61
-194.33
-178.28
-161.46
-144.53
-127.62
-110.56
-93.19
-75.72
-58.70
-42.82
-28.61
-16.27
-5.72
3.24
10.76
16.90
21.79
25.70
29.10
32.35
35.61
38.57
40.56
40.85
39.03
35.32
30.61
26.34
23.99
24.71
28.84
35.75
43.84
50.90
54.70
53.59
46.89
34.84
18.41
-1.32
-23.47
-47.57
-73.30
-100.15
-127.13
-153.00
-176.66
-197.50
-215.62
-231.87
-247.56
-264.04
-282.10
-301.64
-321.60
-340.39
-355.84
-365.80
-368.72
-364.16
-352.74
-335.71
-314.39
-289.85
-263.63
-236.95
-210.85
-186.41
-164.51
-145.71
-129.73
-115.44
-101.15
-86.24
-69.70
-50.26
-26.85
0.38
29.40
56.55
77.71
90.33
93.38
89.99
86.17
88.26
99.97
121.09
148.03
175.69
208.52
245.24
281.07
309.94
328.34
336.44
336.79
332.11
324.03
313.34
298.84
280.38
257.77
231.10
200.83
168.59
137.50
111.72
95.49
90.16
95.06
107.51
124.63
142.62
158.55
170.85
176.75
174.42
162.70
142.47
115.22
82.57
46.20
8.57
-26.96
-56.57
-76.69
-87.86
-90.96
-88.06
-81.72
-74.15
-66.43
-58.86
-51.56
-44.68
-38.90
-34.63
-31.46
-28.94
-26.29
-22.59
-17.25
-10.38
-2.44
5.71
13.42
20.03
25.34
29.90
34.96
41.90
51.51
63.60
76.98
90.07
101.22
108.92
112.02
109.71
101.61
88.15
70.89
52.20
34.57
19.58
7.45
-2.33
-10.04
-14.77
-14.50
-7.03
8.49
30.64
55.77
79.18
96.89
107.00
109.88
107.44
101.80
93.86
82.76
66.34
42.50
10.64
-27.54
-68.37
-107.51
-141.18
-166.95
-183.70
-191.19
-189.74
-180.32
-164.66
-145.24
-124.83
-105.79
-89.49
-76.19
-65.40
-56.36
-48.46
-41.29
-34.60
-28.30
-22.60
-17.99
-15.11
-14.35
-15.65
-18.54
-22.54
-27.50
-33.72
-41.41
-50.25
-59.13
-66.61
-71.80
-75.20
-78.59
-83.98
-92.36
-102.83
-113.17
-121.25
-126.35
-129.40
-132.03
-134.84
-136.37
-133.62
-123.72
-105.76
-81.41
-54.12
-27.41
-3.32
18.07
37.95
57.51
77.12
96.15
113.46
128.12
139.71
148.39
154.59
158.89
161.81
163.89
165.53
166.85
167.71
167.70
166.53
164.09
160.54
156.13
151.11
145.59
139.60
133.32
127.22
122.06
118.57
117.18
117.85
120.05
123.00
125.95
128.25
129.41
128.97
126.48
121.48
113.69
103.02
89.73
74.34
57.61
40.39
23.48
7.45
-7.39
-20.85
-32.82
-43.08
-51.38
-57.61
-62.01
-65.36
-68.75
-73.09
-78.50
-84.03
-87.75
-87.48
-81.63
-69.90
-53.46
-34.54
-15.63
1.25
15.04
25.69
33.79
40.12
45.15
48.88
50.90
50.77
48.24
43.51
37.14
29.97
22.98
17.27
13.97
14.07
17.84
24.37
31.29
35.32
33.30
23.43
6.02
-16.53
-40.63
-62.62
-79.77
-90.76
-95.59
-95.36
-91.90
-87.40
-84.01
-83.25
-85.58
-90.17
-95.19
-98.48
-98.46
-94.65
-87.86
-79.77
-72.29
-66.84
-63.85
-62.68
-62.03
-60.60
-57.85
-54.34
-51.54
-51.03
-53.61
-58.57
-63.79
-66.38
-63.77
-54.75
-39.80
-21.10
-1.82
14.73
26.25
32.33
35.35
40.16
52.67
77.28
114.21
158.17
199.32
226.83
233.13
217.14
184.32
143.54
102.73
65.62
31.32
-3.39
-40.91
-80.99
-120.96
-157.66
-189.39
-216.16
-238.25
-254.30
-260.60
-252.95
-229.85
-194.88
-156.84
-126.52
-112.39
-117.14
-137.13
-164.76
-192.12
-213.54
-225.85
-227.17
-216.37
-193.84
-163.26
-132.22
-109.62
-100.84
-103.41
-106.74
-97.16
-65.39
-12.25
51.36
110.19
152.64
175.98
185.92
191.17
197.06
202.87
203.76
195.60
179.63
162.87
155.30
164.91
194.29
239.74
292.88
343.83
383.64
406.17
408.48
390.81
355.42
305.87
246.25
180.26
111.28
42.46
-22.57
-79.58
-124.61
-155.60
-173.33
-181.31
-184.46
-187.25
-192.40
-200.13
-208.94
-216.42
-220.31
-218.49
-208.70
-188.81
-157.38
-114.92
-64.47
-11.57
36.67
72.51
90.55
90.15
76.18
58.27
47.46
52.19
74.92
110.52
146.75
170.44
173.21
154.67
121.48
83.53
50.13
27.45
18.18
19.97
28.82
41.26
54.10
63.44
64.45
52.85
26.24
-15.59
-74.00
-148.74
-235.76
-326.89
-411.93
-481.55
-529.65
-554.89
-541.53
-486.08
-401.90
-312.86
-237.90
-182.92
-144.48
-116.71
-95.69
-81.56
-75.54
-77.96
-85.67
-92.73
-93.63
-85.89
-70.24
-48.78
-25.35
-4.62
10.56
20.77
29.38
40.12
55.40
76.01
101.50
130.30
158.56
181.39
194.84
197.13
188.84
172.58
152.20
131.58
113.68
99.80
90.45
86.29
87.89
94.52
103.22
109.33
108.31
98.01
79.80
57.92
37.57
22.52
13.74
9.87
8.91
9.94
13.51
21.07
33.55
50.59
70.72
91.99
112.82
132.22
149.51
163.58
172.55
174.09
166.35
149.00
123.71
93.88
63.53
36.14
13.68
-3.50
-16.26
-25.90
-33.63
-40.29
-46.37
-52.15
-57.77
-63.21
-68.25
-72.53
-75.65
-77.25
-77.05
-74.82
-70.32
-63.35
-53.81
-41.85
-27.92
-12.72
2.89
18.02
31.87
43.76
53.15
59.64
63.09
63.66
61.88
58.54
54.55
50.67
47.32
44.53
42.03
39.45
36.52
33.09
29.22
25.03
20.65
16.24
11.99
8.06
4.57
1.41
-1.72
-5.26
-9.48
-14.20
-18.61
-21.45
-21.34
-17.30
-9.07
2.82
17.27
32.93
48.54
63.03
75.62
85.81
93.38
98.39
101.16
102.08
101.43
99.20
95.09
88.69
79.73
68.38
55.28
41.50
28.20
16.36
6.57
-1.12
-7.21
-12.54
-18.17
-25.02
-33.57
-43.66
-54.45
-64.69
-73.07
-78.65
-81.05
-80.43
-77.38
-72.61
-66.97
-61.39
-56.86
-54.30
-54.29
-56.92
-61.71
-67.80
-74.19
-79.98
-84.44
-87.00
-87.14
-84.55
-79.18
-71.46
-62.23
-52.65
-43.83
-36.58
-31.31
-28.05
-26.55
-26.31
-26.63
-26.58
-25.10
-21.25
-14.44
-4.63
7.61
21.31
35.34
48.71
60.69
70.91
79.25
85.81
90.75
94.29
96.61
97.92
98.43
98.40
98.14
98.02
98.36
99.41
101.28
103.91
107.12
110.71
114.51
118.39
122.33
126.37
130.72
135.78
142.24
150.99
162.92
178.54
197.68
219.26
241.65
263.02
281.95
297.50
308.99
315.62
316.21
309.50
294.69
272.12
243.44
211.22
178.15
146.27
116.61
89.30
64.21
41.27
20.58
2.07
-14.97
-32.31
-52.77
-79.35
-113.84
-155.28
-199.29
-238.78
-266.19
-276.23
-267.93
-244.90
-213.64
-181.17
-152.65
-130.66
-115.55
-106.48
-102.12
-100.67
-99.88
-97.47
-92.20
-84.96
-78.88
-78.03
-85.12
-99.54
-116.80
-129.90
-132.09
-119.64
-93.30
-57.99
-21.08
10.02
29.91
36.26
29.99
14.53
-5.48
-25.45
-41.99
-53.75
-61.23
-66.23
-70.66
-75.80
-81.78
-87.94
-93.86
-99.82
-107.02
-117.00
-130.51
-146.79
-163.95
-179.81
-192.98
-202.91
-209.14
-210.47
-205.57
-194.68
-181.04
-170.63
-169.58
-180.74
-201.42
-224.10
-239.94
-243.01
-232.66
-212.87
-189.28
-165.45
-141.33
-113.87
-79.80
-38.21
8.74
57.09
102.80
143.01
176.32
201.60
217.16
220.37
208.28
180.19
140.06
97.13
63.22
47.97
54.37
77.34
105.96
127.60
133.03
119.28
89.34
49.62
7.02
-32.28
-62.05
-76.13
-70.71
-46.75
-11.37
24.14
48.04
52.75
37.68
9.04
-19.31
-33.57
-26.67
-2.34
29.36
59.49
84.50
104.82
121.80
135.65
144.94
147.64
143.20
133.62
122.08
111.75
104.50
100.24
97.09
92.22
82.60
66.57
46.58
25.38
5.76
-10.18
-21.73
-29.62
-35.19
-40.58
-47.18
-54.85
-63.84
-73.79
-83.37
-90.54
-93.49
-90.67
-82.68
-71.44
-51.33
-22.60
9.04
36.17
54.21
58.53
53.28
42.53
28.89
13.35
-1.69
-16.06
-29.83
-42.89
-54.97
-64.82
-71.98
-76.22
-77.79
-78.50
-80.39
-83.93
-88.05
-90.94
-90.58
-86.63
-79.79
-71.18
-62.30
-54.10
-46.29
-37.94
-28.38
-17.41
-5.82
5.50
16.15
26.11
35.63
45.26
55.28
65.32
74.46
81.36
84.94
84.92
81.73
76.31
69.88
63.56
58.13
53.95
50.99
49.08
48.03
47.73
48.07
49.07
50.79
53.26
56.29
59.39
61.85
62.88
61.88
58.73
53.93
48.73
44.85
43.99
47.09
53.96
63.21
72.67
79.90
82.70
79.43
69.37
52.98
31.92
8.80
-13.50
-32.68
-47.76
-59.21
-68.43
-76.80
-85.04
-92.92
-99.70
-104.69
-107.69
-108.96
-108.94
-107.99
-106.17
-103.38
-99.47
-94.55
-89.09
-83.93
-79.91
-77.58
-76.89
-77.07
-76.87
-74.87
-69.95
-61.72
-50.69
-37.91
-24.70
-12.15
-0.93
8.74
16.92
23.75
29.31
33.64
36.87
39.30
41.30
43.13
44.75
45.91
46.27
45.60
43.80
40.79
36.53
31.03
24.64
17.99
11.89
6.95
3.36
0.83
-1.21
-3.33
-5.87
-8.94
-12.58
-16.86
-21.94
-27.88
-34.36
-40.60
-45.43
-47.78
-46.99
-43.04
-36.42
-27.88
-18.13
-7.80
2.44
11.87
19.72
25.35
28.53
29.47
28.81
27.34
25.70
24.16
22.72
21.32
20.03
18.99
18.19
17.43
16.50
15.41
14.58
14.73
16.59
20.39
25.67
31.24
36.21
40.68
46.01
54.17
66.57
83.09
101.77
119.34
131.78
136.65
134.24
127.56
121.05
118.51
121.49
128.86
136.90
139.30
130.51
107.74
72.02
27.72
-19.02
-61.95
-95.93
-118.98
-135.28
-152.23
-178.26
-219.24
-275.84
-342.70
-409.33
-462.51
-491.33
-493.18
-472.04
-436.70
-397.33
-362.66
-338.55
-327.19
-326.56
-312.83
-268.69
-189.68
-88.96
11.41
93.96
151.82
184.46
203.27
217.14
228.58
237.48
242.93
244.53
242.60
236.79
226.99
214.91
202.84
191.25
178.72
164.26
146.34
123.53
96.31
67.80
42.95
24.76
12.23
2.30
-7.90
-19.07
-30.45
-38.89
-42.42
-41.53
-39.65
-41.46
-50.25
-66.39
-87.73
-110.81
-132.41
-151.04
-166.00
-177.96
-187.78
-195.36
-199.57
-199.01
-192.70
-180.42
-163.05
-142.04
-119.29
-96.39
-74.42
-53.85
-34.71
-16.58
1.46
20.48
41.55
65.40
92.23
121.39
151.20
179.10
202.20
218.16
225.67
224.85
216.74
202.83
184.33
161.87
135.67
106.19
74.53
42.44
11.84
-15.98
-40.75
-63.30
-85.08
-107.34
-130.51
-153.78
-175.29
-192.54
-203.31
-206.24
-201.30
-189.61
-172.91
-153.03
-131.29
-108.40
-84.51
-59.33
-32.33
-2.89
29.34
64.02
99.80
134.22
164.29
187.28
201.58
207.12
205.15
197.50
185.92
171.62
155.34
137.67
119.30
101.07
83.69
67.58
52.64
38.47
24.56
10.52
-3.85
-18.60
-33.74
-49.20
-64.74
-79.74
-93.04
-103.05
-107.99
-106.29
-97.04
-80.23
-56.78
-28.34
2.99
34.95
65.41
92.55
114.93
131.64
142.32
147.09
146.52
141.42
132.75
121.43
108.29
94.11
79.58
65.37
52.11
40.33
30.34
22.15
15.58
10.22
5.66
1.55
-2.35
-6.21
-10.28
-14.94
-20.74
-28.25
-37.87
-49.62
-62.88
-76.44
-88.56
-97.19
-100.42
-96.95
-86.42
-69.65
-48.48
-25.36
-2.78
17.27
33.51
45.44
53.05
56.66
56.78
53.99
48.98
42.37
34.69
26.27
17.26
7.75
-2.00
-11.59
-20.30
-27.28
-31.75
-33.18
-31.58
-27.47
-21.83
-15.73
-10.13
-5.63
-2.51
-0.95
-1.16
-3.46
-8.10
-14.87
-22.94
-30.73
-36.33
-37.95
-34.41
-25.50
-11.96
4.71
22.68
40.17
55.78
68.61
78.30
84.86
88.63
90.15
90.07
89.11
87.95
87.11
86.79
86.89
86.99
86.58
85.27
82.92
79.75
76.15
72.55
69.19
66.11
63.17
60.14
56.85
53.12
48.78
43.67
37.83
31.62
25.88
21.85
20.90
24.08
31.80
43.74
58.95
76.21
94.28
112.09
128.64
143.03
154.38
161.97
165.48
165.11
161.56
155.89
149.29
142.81
137.24
132.97
129.98
127.74
125.26
121.20
114.37
104.13
90.80
75.59
60.11
45.71
32.80
20.80
8.44
-5.58
-21.97
-40.49
-59.96
-78.47
-93.84
-103.95
-107.24
-103.06
-91.84
-75.07
-54.84
-33.39
-12.64
5.91
20.95
31.13
34.89
30.73
17.74
-3.83
-32.30
-64.75
-97.65
-127.55
-151.83
-169.17
-179.53
-183.90
-183.84
-181.00
-176.75
-172.06
-167.53
-163.51
-160.28
-158.13
-157.36
-158.16
-160.43
-163.55
-166.35
-167.18
-164.21
-155.94
-141.58
-121.32
-96.42
-68.82
-40.81
-14.54
8.16
26.11
38.79
46.40
49.75
50.10
48.86
47.22
45.96
45.30
45.01
44.65
43.75
42.05
39.49
36.28
32.79
29.54
27.03
25.73
25.80
26.93
28.08
27.58
23.35
13.52
-2.82
-25.23
-51.72
-79.20
-104.09
-123.18
-134.10
-135.62
-127.68
-111.27
-88.28
-61.24
-32.96
-6.06
17.58
36.98
52.03
63.20
71.14
76.50
79.90
81.97
83.33
84.47
85.49
86.06
85.58
83.56
79.97
75.31
70.39
65.87
61.82
57.68
52.49
45.26
35.44
23.02
8.52
-7.19
-23.05
-37.91
-50.54
-59.67
-64.12
-63.09
-56.34
-44.28
-27.92
-8.78
11.58
31.72
50.55
67.31
81.45
92.57
100.45
104.98
106.22
104.39
99.91
93.33
85.24
76.27
66.99
58.17
50.51
44.46
40.28
37.99
37.49
38.51
40.66
43.42
46.78
50.46
53.78
55.83
55.85
53.81
50.63
47.98
47.86
53.32
66.12
86.15
111.57
139.68
167.91
194.32
217.55
236.65
252.79
266.45
276.92
282.56
281.88
274.58
261.81
245.55
227.72
212.04
199.97
190.33
180.18
166.84
149.65
130.10
110.79
77.84
25.94
-41.32
-112.38
-174.41
-219.61
-246.42
-257.55
-257.70
-251.85
-241.30
-227.69
-212.70
-198.11
-185.37
-175.20
-167.86
-163.73
-163.81
-167.87
-174.48
-183.73
-196.21
-211.56
-227.41
-239.69
-244.03
-237.58
-218.89
-189.85
-155.22
-120.55
-90.10
-65.56
-46.24
-30.27
-15.89
-1.62
12.87
26.87
39.36
49.56
57.23
62.61
66.17
68.39
70.06
71.99
74.71
78.34
82.35
85.43
85.75
81.57
72.00
57.58
40.28
22.84
7.77
-3.40
-10.48
-14.33
-16.38
-17.91
-19.82
-22.63
-26.73
-32.42
-39.84
-48.75
-58.49
-68.14
-76.80
-83.94
-89.60
-94.33
-98.89
-103.84
-109.19
-114.40
-118.74
-121.57
-122.72
-122.69
-122.60
-123.93
-127.89
-135.07
-145.11
-157.28
-170.39
-183.15
-194.56
-204.28
-212.77
-221.12
-230.39
-241.34
-254.72
-269.98
-285.09
-296.81
-301.74
-297.62
-284.26
-263.23
-237.50
-211.27
-187.46
-166.93
-148.65
-130.99
-112.75
-93.46
-72.35
-48.69
-23.36
1.92
24.40
40.75
47.79
44.01
30.21
10.20
-0.10
10.81
45.15
93.32
140.46
176.11
198.95
211.94
224.81
243.64
267.68
291.84
309.22
314.29
302.05
271.05
223.52
165.61
105.60
52.53
15.45
1.17
12.37
46.29
95.18
147.43
190.64
213.91
210.97
182.59
136.11
83.39
37.34
8.24
1.75
17.09
44.93
72.78
92.52
102.57
105.28
102.98
96.48
85.60
71.45
54.97
39.34
28.72
26.10
31.94
44.15
59.05
72.34
80.41
81.22
75.18
65.20
54.95
47.27
42.93
40.54
37.44
31.16
20.88
8.49
-2.22
-7.63
-6.01
1.78
12.80
23.23
29.69
30.01
23.73
11.69
-4.51
-22.73
-40.11
-53.06
-57.79
-51.39
-33.32
-6.03
25.27
54.00
74.35
83.15
80.50
69.23
53.26
35.92
19.05
3.10
-12.14
-26.64
-39.84
-50.87
-59.10
-64.63
-68.22
-70.62
-71.76
-70.48
-64.98
-54.00
-37.81
-18.55
0.55
16.59
28.16
35.75
40.98
45.44
49.85
53.88
56.74
57.80
56.98
54.48
50.28
44.00
35.13
23.63
10.47
-2.37
-12.72
-19.38
-23.17
-26.82
-33.87
-46.77
-65.58
-87.95
-110.20
-128.94
-142.19
-149.56
-151.66
-149.48
-144.20
-137.37
-131.08
-127.50
-127.98
-132.17
-137.95
-142.12
-141.85
-135.68
-123.70
-107.15
-87.83
-67.52
-47.98
-30.76
-17.03
-7.43
-1.80
0.66
1.18
1.07
1.26
2.13
3.45
4.60
4.89
3.90
1.74
-1.02
-3.57
-5.19
-5.62
-5.03
-3.96
-3.04
-2.66
-3.01
-4.04
-5.65
-7.72
-10.15
-12.76
-15.33
-17.66
-19.58
-20.99
-21.84
