1495703432.00
64.000000
-0.00
-0.00
-0.00
-0.00
-0.00
-0.00
-0.00
-0.00
-0.00
-0.00
0.00
0.01
0.01
-0.00
-0.03
-0.05
-0.05
0.00
0.13
0.36
0.66
1.01
1.37
1.72
2.06
2.40
2.79
3.24
3.80
4.42
5.06
5.66
6.20
6.68
7.15
7.68
8.31
9.14
10.09
11.04
11.88
12.56
13.14
13.76
14.65
15.96
17.91
20.32
22.90
25.38
27.58
29.57
31.68
34.32
37.81
42.54
48.15
54.10
59.83
64.97
69.58
74.14
79.34
85.71
93.76
103.00
112.62
121.73
129.77
136.75
143.30
150.75
157.77
166.64
177.95
191.79
206.97
220.57
228.25
225.36
208.53
176.87
132.76
80.05
23.07
-34.94
-92.44
-149.16
-205.23
-260.37
-313.74
-363.87
-409.83
-450.91
-486.50
-515.74
-537.23
-549.22
-549.96
-538.37
-514.21
-478.67
-433.88
-382.45
-327.02
-269.84
-212.63
-156.66
-102.95
-52.37
-5.90
35.58
71.43
101.35
125.50
144.38
158.69
169.15
176.37
180.75
182.57
182.06
179.50
175.23
169.66
163.20
156.18
148.83
141.28
133.61
125.85
118.07
110.37
102.80
95.46
88.35
81.51
74.90
68.54
62.45
56.66
51.21
46.13
41.41
37.01
32.88
28.96
25.24
21.74
18.52
15.66
13.19
11.08
9.25
7.54
5.84
4.11
2.41
0.88
-0.31
-1.06
-1.44
-1.66
-2.00
-2.72
-3.86
-5.29
-6.67
-7.65
-8.03
-7.87
-7.51
-7.43
-8.05
-9.46
-11.42
-13.42
-14.90
-15.54
-15.39
-14.82
-14.39
-14.57
-15.74
-18.07
-21.49
-25.46
-28.86
-30.00
-27.27
-19.83
-8.31
5.21
17.91
27.40
32.61
33.98
32.95
31.00
28.98
26.99
24.78
22.17
19.36
16.81
14.94
14.02
14.05
14.92
16.35
17.96
19.31
20.01
19.91
19.13
18.00
16.81
15.62
14.30
12.60
10.50
8.30
6.58
5.94
6.73
8.85
11.80
14.86
17.37
18.95
19.61
19.53
18.96
17.98
16.50
14.43
11.80
8.81
5.82
3.00
0.36
-2.16
-4.72
-7.38
-10.00
-12.43
-14.54
-16.30
-17.78
-19.09
-20.21
-21.07
-21.58
-21.70
-21.48
-20.94
-20.15
-19.21
-18.27
-17.49
-17.00
-16.67
-16.11
-14.79
-12.28
-8.46
-3.62
1.55
6.30
9.99
12.23
12.99
12.47
11.13
9.50
8.18
7.61
7.99
9.36
11.55
14.29
17.35
20.47
23.44
26.12
28.38
30.24
31.94
33.80
36.03
38.64
41.40
43.81
45.38
45.56
44.04
40.84
36.32
30.96
25.20
19.15
12.45
5.18
-2.77
-11.31
-20.10
-28.61
-36.30
-42.77
-47.93
-51.90
-54.90
-57.27
-59.28
-61.16
-63.04
-64.84
-66.25
-66.73
-65.59
-62.21
-56.45
-48.74
-39.94
-31.17
-23.38
-17.16
-12.61
-9.51
-7.50
-6.26
-5.57
-5.17
-4.82
-4.19
-3.05
-1.32
0.95
3.56
6.27
8.88
11.21
13.10
14.40
15.02
14.93
14.16
12.85
11.12
9.14
7.11
5.21
3.55
2.14
0.81
-0.64
-2.39
-4.40
-6.47
-8.34
-9.84
-11.14
-12.62
-14.81
-18.07
-22.37
-27.17
-31.50
-34.29
-34.62
-32.11
-26.97
-19.92
-11.94
-3.94
3.42
9.83
15.16
19.32
22.18
23.65
23.74
22.75
21.27
20.00
19.56
20.29
22.14
24.72
27.49
29.94
31.70
32.60
32.65
31.91
30.51
28.66
26.61
24.56
22.64
20.80
18.83
16.49
13.65
10.47
7.30
4.57
2.50
0.99
-0.34
-1.93
-4.04
-6.63
-9.48
-12.36
-15.15
-17.77
-20.02
-21.44
-21.37
-19.25
-14.99
-9.12
-2.70
3.12
7.51
10.14
11.18
10.94
9.70
7.59
4.72
1.42
-1.75
-4.07
-4.95
-4.15
-2.03
0.70
3.19
4.81
5.32
4.86
3.75
2.33
0.74
-1.03
-3.01
-5.13
-7.20
-8.95
-10.15
-10.70
-10.72
-10.44
-10.18
-10.24
-10.84
-12.06
-13.82
-15.95
-18.31
-20.81
-23.41
-25.94
-27.87
-28.46
-26.88
-22.65
-16.02
-7.93
0.21
7.05
11.76
14.16
14.64
13.78
12.11
10.02
7.76
5.64
4.01
3.27
3.64
5.09
7.26
9.54
11.24
11.88
11.33
9.82
7.88
6.04
4.68
3.89
3.49
3.19
2.66
1.68
0.21
-1.58
-3.41
-4.97
-6.09
-6.86
-7.60
-8.79
-10.80
-13.69
-17.17
-20.73
-23.77
-25.84
-26.63
-25.97
-23.79
-20.04
-14.88
-8.70
-2.12
4.09
9.26
12.97
15.19
16.16
16.33
16.14
15.87
15.66
15.59
15.69
16.04
16.69
17.58
18.40
18.66
17.86
15.70
12.22
7.88
3.34
-0.72
-3.94
-6.30
-8.05
-9.53
-11.05
-12.79
-14.79
-17.00
-19.30
-21.51
-23.52
-25.26
-26.79
-28.28
-30.04
-32.33
-35.29
-38.81
-42.53
-45.83
-47.94
-48.11
-45.78
-40.82
-33.55
-24.81
-15.63
-6.95
0.59
6.87
12.14
16.85
21.40
26.01
30.65
35.22
39.61
43.89
48.18
52.54
56.77
60.33
62.50
62.62
60.39
56.02
50.16
43.60
36.98
30.64
24.60
18.77
13.09
7.60
2.46
-2.26
-6.65
-10.89
-15.24
-19.88
-24.83
-30.04
-35.40
-40.73
-45.83
-50.25
-53.40
-54.54
-53.11
-48.90
-42.16
-33.59
-24.00
-14.15
-4.51
4.57
12.88
20.22
26.33
31.09
34.53
36.85
38.36
39.24
39.49
38.94
37.43
34.89
31.47
27.48
23.29
19.16
15.24
11.60
8.26
5.31
2.83
0.84
-0.74
-2.15
-3.61
-5.31
-7.26
-9.41
-11.63
-13.79
-15.72
-17.25
-18.23
-18.65
-18.78
-19.06
-19.98
-21.78
-24.23
-26.58
-27.78
-26.84
-23.21
-17.06
-9.16
-0.68
7.23
13.74
18.57
21.83
23.89
25.11
25.72
25.88
25.77
25.71
26.11
27.38
29.84
33.63
38.77
45.07
52.08
59.05
65.06
69.16
70.78
69.92
67.04
62.80
57.74
52.05
45.75
38.82
31.52
24.32
17.68
11.79
6.49
1.34
-4.12
-10.12
-16.54
-23.00
-28.97
-34.05
-38.12
-41.33
-44.15
-47.05
-50.36
-54.04
-57.70
-60.62
-62.00
-61.25
-58.04
-52.52
-45.21
-36.84
-28.27
-20.26
-13.36
-7.82
-3.64
-0.62
1.49
2.84
3.47
3.29
2.27
0.51
-1.70
-4.01
-6.11
-7.81
-9.11
-10.09
-10.73
-10.94
-10.60
-9.68
-8.35
-6.95
-5.90
-5.51
-5.83
-6.58
-7.24
-7.20
-5.97
-3.40
0.25
4.28
7.74
9.82
10.04
8.56
5.97
3.07
0.43
-1.75
-3.70
-5.75
-8.16
-10.91
-13.76
-16.42
-18.63
-20.26
-21.15
-21.02
-19.54
-16.41
-11.62
-5.57
0.98
7.10
11.97
15.14
16.61
16.74
16.11
15.27
14.60
14.32
14.49
15.06
15.91
16.83
17.54
17.75
17.25
16.02
14.31
12.52
11.11
10.36
10.24
10.38
10.26
9.39
7.48
4.54
0.85
-3.30
-7.58
-11.84
-16.08
-20.41
-25.05
-30.21
-36.06
-42.52
-49.29
-55.75
-61.15
-64.75
-66.08
-65.02
-61.87
-57.17
-51.52
-45.38
-38.91
-31.96
-24.02
-14.43
-2.65
11.49
27.53
44.43
60.76
75.14
86.64
94.92
100.28
103.28
104.52
104.32
102.84
100.10
96.17
91.22
85.51
79.32
72.95
66.81
61.41
57.31
54.92
54.36
55.39
57.46
59.92
62.20
63.96
65.08
65.62
65.68
65.18
63.84
61.16
56.60
49.83
40.91
30.34
18.91
7.34
-3.92
-14.79
-25.41
-35.89
-46.17
-56.08
-65.33
-73.63
-80.64
-85.94
-89.05
-89.62
-87.58
-83.34
-77.72
-71.79
-66.54
-62.65
-60.42
-59.69
-60.05
-60.79
-61.18
-60.48
-58.21
-54.12
-48.36
-41.36
-33.79
-26.42
-19.99
-15.07
-11.92
-10.43
-10.17
-10.52
-10.83
-10.68
-9.96
-8.86
-7.77
-7.10
-7.16
-8.14
-10.18
-13.36
-17.72
-23.05
-28.88
-34.46
-38.99
-41.96
-43.38
-43.84
-44.09
-44.73
-45.75
-46.54
-46.07
-43.43
-38.17
-30.45
-20.93
-10.44
0.31
10.84
20.84
30.08
38.32
45.42
51.35
56.23
60.27
63.58
66.12
67.73
68.31
67.87
66.66
65.02
63.19
61.18
58.79
55.76
51.96
47.56
42.89
38.30
33.88
29.32
24.02
17.42
9.33
0.14
-9.38
-18.44
-26.67
-34.31
-41.88
-49.65
-57.07
-62.78
-65.12
-63.01
-56.60
-47.34
-37.42
-28.82
-22.64
-18.98
-17.28
-16.91
-17.53
-19.02
-21.20
-23.67
-25.78
-26.90
-26.64
-24.95
-21.96
-17.80
-12.55
-6.33
0.52
7.44
13.70
18.66
21.94
23.45
23.28
21.47
17.94
12.61
5.53
-2.97
-12.27
-21.57
-30.05
-37.03
-42.01
-44.69
-44.88
-42.54
-37.81
-31.17
-23.41
-15.57
-8.62
-3.27
0.29
2.32
3.36
4.08
5.01
6.54
8.78
11.60
14.60
17.20
18.91
19.55
19.46
19.35
19.99
21.73
24.29
26.80
28.21
27.76
25.29
21.18
16.00
10.24
4.16
-2.11
-8.24
-13.74
-18.09
-21.06
-23.00
-24.75
-27.24
-30.85
-35.13
-38.76
-40.19
-38.29
-32.91
-25.01
-16.27
-8.40
-2.53
1.14
3.21
4.75
6.80
9.92
14.14
19.04
24.02
28.66
32.82
36.69
40.58
44.79
49.55
54.92
60.77
66.51
71.04
72.83
70.44
63.16
51.50
37.31
23.11
11.18
2.71
-2.59
-6.08
-9.37
-13.62
-19.06
-25.12
-30.87
-35.38
-37.99
-38.38
-36.63
-33.09
-28.46
-23.65
-19.52
-16.66
-15.15
-14.56
-14.15
-13.17
-11.13
-7.92
-3.80
0.86
5.72
10.74
16.15
22.33
29.68
38.41
48.44
59.40
70.49
80.65
88.56
93.05
93.46
89.86
83.12
74.50
65.08
55.30
44.79
32.89
19.19
4.10
-11.01
-24.28
-33.98
-39.19
-40.00
-37.35
-32.62
-27.16
-21.97
-17.64
-14.43
-12.38
-11.47
-11.64
-12.72
-14.39
-16.19
-17.65
-18.46
-18.56
-18.15
-17.61
-17.34
-17.53
-18.18
-19.08
-19.95
-20.57
-20.86
-20.94
-21.06
-21.47
-22.32
-23.59
-25.10
-26.65
-28.09
-29.48
-30.97
-32.70
-34.68
-36.56
-37.72
-37.43
-35.12
-30.68
-24.49
-17.32
-10.07
-3.47
2.04
6.28
9.28
11.09
11.86
11.85
11.48
11.27
11.62
12.59
13.85
14.80
14.92
14.05
12.43
10.63
9.14
8.20
7.66
7.12
6.12
4.41
1.93
-1.13
-4.45
-7.68
-10.51
-12.72
-14.31
-15.50
-16.71
-18.38
-20.74
-23.54
-26.09
-27.46
-26.79
-23.72
-18.45
-11.74
-4.58
2.14
7.87
12.42
15.85
18.37
20.13
21.25
21.82
21.97
21.87
21.71
21.65
21.76
21.95
22.06
21.86
21.17
19.94
18.30
16.43
14.46
12.39
10.04
7.09
3.23
-1.71
-7.70
-14.40
-21.29
-27.72
-33.16
-37.32
-40.26
-42.28
-43.80
-45.19
-46.66
-48.25
-49.85
-51.24
-52.11
-52.04
-50.51
-47.09
-41.63
-34.36
-25.87
-16.80
-7.64
1.47
10.66
19.96
29.12
37.49
44.33
49.25
52.62
55.36
58.50
62.31
65.97
67.77
65.95
59.72
49.76
38.06
27.02
18.46
13.05
10.37
9.45
9.34
9.44
9.38
8.88
7.64
5.44
2.32
-1.34
-5.05
-8.37
-11.10
-13.29
-15.05
-16.44
-17.40
-17.85
-17.74
-17.10
-16.05
-14.67
-13.10
-11.55
-10.33
-9.81
-10.18
-11.21
-12.21
-12.13
-10.05
-5.53
1.10
8.82
16.38
22.70
27.20
29.89
31.12
31.29
30.65
29.34
27.53
25.47
23.47
21.73
20.17
18.37
15.85
12.29
7.79
2.91
-1.61
-5.10
-7.28
-8.28
-8.46
-8.22
-7.78
-7.19
-6.36
-5.23
-3.83
-2.32
-0.94
0.08
0.65
0.89
1.05
1.48
2.37
3.72
5.31
6.95
8.69
10.89
14.09
18.64
24.51
31.24
38.13
44.54
50.00
54.15
56.53
56.58
53.68
47.49
38.13
26.27
12.90
-0.86
-13.98
-25.50
-34.50
-40.12
-41.80
-39.52
-33.99
-26.55
-18.84
-12.27
-7.66
-5.05
-3.89
-3.49
-3.39
-3.57
-4.36
-6.16
-9.10
-12.99
-17.39
-21.83
-25.98
-29.58
-32.34
-33.82
-33.60
-31.48
-27.78
-23.30
-19.07
-15.97
-14.33
-13.95
-14.23
-14.52
-14.47
-14.01
-13.37
-12.80
-12.44
-12.23
-12.03
-11.67
-11.08
-10.39
-9.85
-9.69
-10.04
-10.82
-11.79
-12.67
-13.24
-13.40
-13.20
-12.75
-12.11
-11.44
-10.88
-10.66
-10.98
-11.81
-12.77
-13.18
-12.31
-9.69
-5.42
-0.15
5.22
9.94
13.65
16.38
18.29
19.33
19.10
17.08
12.97
7.00
0.04
-6.70
-11.93
-14.67
-14.44
-11.36
-6.02
0.67
7.70
14.19
19.57
23.64
26.44
28.14
28.94
29.03
28.62
28.01
27.42
26.93
26.37
25.31
23.36
20.27
15.99
10.63
4.38
-2.52
-9.69
-16.59
-22.66
-27.45
-30.78
-32.96
-34.63
-36.47
-38.77
-41.25
-43.17
-43.78
-42.42
-38.80
-33.26
-26.71
-20.30
-14.99
-11.21
-8.87
-7.88
-7.82
-8.17
-8.70
-9.60
-11.28
-13.93
-17.41
-21.23
-25.39
-29.52
-33.18
-36.32
-39.55
-43.77
-49.67
-57.17
-65.42
-73.63
-79.96
-81.91
-77.36
-65.58
-47.52
-25.48
-2.51
23.40
50.16
73.80
91.39
102.82
109.54
112.34
110.79
104.16
92.23
75.90
58.51
44.77
39.00
43.33
57.04
76.92
98.36
117.31
128.37
128.03
115.67
93.27
64.30
32.73
2.11
-24.80
-46.17
-61.41
-69.89
-71.01
-64.65
-51.72
-34.36
-15.64
1.11
13.16
18.99
19.13
15.77
11.61
8.52
6.91
5.86
3.99
0.32
-5.25
-11.81
-18.04
-23.07
-27.03
-30.89
-35.90
-43.01
-52.32
-63.06
-73.74
-82.70
-88.53
-90.49
-88.57
-83.33
-75.71
-66.85
-58.01
-50.43
-45.25
-43.10
-43.82
-46.19
-48.22
-47.85
-43.75
-35.90
-25.55
-14.62
-4.84
2.91
8.68
13.07
16.65
19.49
21.27
21.55
20.22
17.66
14.55
11.47
8.66
5.91
2.85
-0.82
-5.17
-10.01
-15.10
-20.31
-25.63
-31.04
-36.47
-41.65
-46.23
-49.88
-52.43
-53.92
-54.63
-54.81
-54.50
-53.41
-50.88
-46.10
-38.53
-28.08
-15.28
-1.20
12.79
25.42
35.77
43.47
48.71
52.05
54.12
55.43
56.19
56.34
55.78
54.55
52.93
51.31
49.98
48.96
47.99
46.65
44.59
41.67
38.00
33.89
29.70
25.78
22.35
19.55
17.40
15.86
14.85
14.19
13.68
12.97
11.68
9.43
6.00
1.46
-3.77
-8.94
-13.13
-15.44
-15.29
-12.52
-7.46
-0.87
6.35
13.31
19.33
23.97
26.99
28.19
27.45
24.82
20.63
15.64
10.82
7.11
5.05
4.65
5.38
6.44
7.10
6.98
6.12
4.83
3.52
2.45
1.65
0.93
0.01
-1.35
-3.24
-5.54
-8.00
-10.33
-12.30
-13.86
-15.16
-16.45
-18.08
-20.33
-23.38
-27.21
-31.57
-35.93
-39.51
-41.40
-40.77
-37.12
-30.58
-21.92
-12.41
-3.46
3.84
8.94
11.88
13.11
13.14
12.37
10.97
9.09
6.97
4.99
3.62
3.16
3.52
4.33
5.06
5.32
5.01
4.34
3.59
2.86
1.97
0.50
-1.92
-5.36
-9.46
-13.60
-17.22
-20.17
-22.86
-26.00
-30.27
-35.87
-42.20
-47.92
-51.36
-51.05
-46.21
-37.05
-24.70
-10.75
3.13
15.60
25.78
33.28
38.06
40.34
40.55
39.37
37.73
36.67
37.09
39.39
43.35
48.15
52.69
56.04
57.70
57.68
56.36
54.16
51.37
48.07
44.23
39.83
34.92
29.62
24.02
18.19
12.18
6.09
0.09
-5.65
-11.06
-16.16
-21.08
-25.82
-30.10
-33.30
-34.58
-33.22
-28.95
-22.19
-13.88
-5.25
2.62
9.03
13.61
16.25
16.85
15.30
11.64
6.30
0.16
-5.51
-9.34
-10.19
-7.52
-1.47
7.12
16.97
26.69
35.04
41.14
44.54
45.12
42.99
38.36
31.53
22.92
13.12
2.82
-7.15
-16.04
-23.30
-28.75
-32.69
-35.86
-39.15
-43.26
-48.25
-53.43
-57.56
-59.29
-57.78
-52.95
-45.47
-36.38
-26.62
-16.88
-7.65
0.60
7.22
11.55
13.26
12.73
11.05
9.73
10.07
12.58
16.77
21.46
25.37
27.73
28.57
28.42
27.90
27.26
26.25
24.41
21.42
17.39
12.74
7.95
3.29
-1.24
-5.64
-9.71
-12.98
-14.96
-15.57
-15.47
-15.79
-17.67
-21.45
-26.37
-30.63
-32.20
-29.67
-22.89
-12.94
-1.66
9.21
18.55
26.04
31.94
36.67
40.55
43.76
46.47
48.81
50.80
52.12
52.17
50.34
46.43
40.97
35.23
30.77
28.76
29.42
31.91
34.73
36.33
35.78
33.02
28.70
23.71
18.77
14.10
9.59
4.98
0.18
-4.61
-9.05
-12.92
-16.39
-20.11
-25.07
-32.22
-42.09
-54.49
-68.40
-82.04
-93.23
-99.78
-99.97
-92.87
-78.59
-58.33
-34.24
-9.09
14.15
32.91
45.48
51.32
51.06
46.24
38.84
30.77
23.40
17.36
12.47
8.04
3.27
-2.33
-8.66
-14.92
-19.89
-22.28
-21.31
-16.96
-10.08
-2.11
5.34
10.92
13.95
14.48
13.34
11.80
11.25
12.77
16.83
23.11
30.65
38.09
44.07
47.48
47.60
44.06
36.68
25.51
10.92
-6.18
-24.16
-40.85
-54.00
-61.89
-63.95
-60.83
-54.17
-45.99
-37.97
-31.11
-25.58
-20.97
-16.75
-12.63
-8.77
-5.69
-3.90
-3.46
-3.69
-3.33
-0.95
4.36
12.58
22.76
33.46
43.28
51.40
57.44
61.29
62.75
61.51
57.30
50.28
41.21
31.29
21.90
14.07
8.30
4.48
2.09
0.52
-0.75
-1.92
-2.91
-3.45
-3.31
-2.45
-1.07
0.42
1.55
1.97
1.45
-0.11
-2.72
-6.39
-10.96
-16.06
-21.06
-25.12
-27.41
-27.38
-24.91
-20.38
-14.49
-8.16
-2.24
2.58
5.80
7.17
6.69
4.57
1.30
-2.38
-5.58
-7.47
-7.65
-6.31
-4.22
-2.43
-1.76
-2.43
-4.04
-5.85
-7.24
-7.94
-8.06
-7.79
-7.08
-5.51
-2.54
2.11
8.07
14.32
19.51
22.40
22.33
19.29
13.80
6.63
-1.42
-9.60
-17.10
-23.02
-26.31
-26.14
-22.17
-14.73
-4.87
5.93
16.24
25.05
31.99
37.10
40.58
42.47
42.78
41.41
38.38
33.83
28.12
21.69
15.00
8.38
2.11
-3.38
-7.79
-11.08
-13.50
-15.48
-17.42
-19.57
-22.05
-24.83
-27.09
-27.98
-26.87
-23.50
-17.93
-10.58
-2.43
4.93
9.73
11.99
12.45
12.19
12.05
12.71
14.67
18.08
22.81
28.55
37.06
49.61
65.77
83.15
98.71
110.22
117.01
120.01
121.25
125.73
137.29
156.67
181.12
206.40
228.75
246.06
257.91
248.24
208.50
141.92
63.02
-12.10
-73.77
-119.69
-151.89
-174.06
-190.09
-199.95
-201.96
-194.16
-177.06
-151.06
-118.00
-81.53
-46.53
-18.07
2.16
14.25
18.96
16.85
8.71
-4.17
-19.86
-35.26
-46.61
-49.79
-42.96
-27.46
-7.39
12.39
27.67
36.18
37.63
33.02
24.53
14.16
3.09
-8.36
-20.21
-32.45
-44.79
-56.64
-67.49
-76.86
-84.56
-90.78
-95.98
-100.65
-105.14
-109.49
-113.45
-116.59
-118.52
-118.95
-117.84
-115.26
-111.39
-106.28
-99.91
-92.12
-82.87
-72.33
-60.98
-49.61
-39.13
-30.49
-24.52
-21.86
-22.81
-27.24
-34.54
-43.50
-52.50
-59.73
-63.66
-63.42
-59.01
-51.33
-41.86
-32.23
-23.72
-17.04
-12.24
-8.86
-6.22
-3.56
-0.14
4.63
11.04
18.81
27.14
34.77
40.40
43.14
42.85
40.20
36.35
32.51
29.46
27.39
26.01
24.91
23.90
23.24
23.48
25.10
28.11
31.88
35.24
37.01
36.43
33.38
28.27
21.61
13.74
4.85
-4.76
-14.26
-22.24
-27.06
-27.45
-23.04
-14.45
-3.01
9.76
22.44
33.83
42.89
48.69
50.66
48.80
43.91
37.39
30.76
25.07
20.63
17.02
13.51
9.52
4.88
-0.15
-5.14
-9.68
-13.52
-16.47
-18.27
-18.55
-16.93
-13.32
-8.16
-2.51
2.28
4.96
4.92
2.35
-1.91
-6.81
-11.47
-15.45
-18.65
-21.11
-22.81
-23.53
-23.03
-21.09
-17.66
-12.86
-7.03
-0.69
5.49
10.94
15.35
18.88
22.06
25.56
29.86
35.00
40.60
45.99
50.45
53.39
54.48
53.71
51.46
48.43
45.47
43.21
41.74
40.49
38.58
35.17
29.95
23.23
15.73
8.23
1.28
-4.81
-9.89
-13.74
-16.24
-17.52
-18.09
-18.72
-20.15
-22.70
-26.21
-30.24
-34.23
-37.80
-40.80
-43.12
-44.80
-45.93
-46.69
-47.35
-48.07
-48.69
-48.63
-47.04
-43.13
-36.51
-27.36
-16.21
-3.72
9.63
23.41
37.09
49.76
60.19
67.14
69.74
67.89
62.32
54.42
45.76
37.63
30.81
25.57
21.71
18.86
16.59
14.55
12.48
10.18
7.61
4.87
2.34
0.64
0.53
2.46
6.26
10.87
14.58
15.50
12.36
4.95
-5.78
-18.11
-30.17
-40.54
-48.45
-53.77
-56.73
-57.71
-56.99
-54.81
-51.37
-46.86
-41.51
-35.50
-28.91
-21.69
-13.82
-5.49
2.69
9.67
14.33
15.93
14.59
11.41
8.14
6.53
7.69
11.70
17.81
24.81
31.55
37.18
41.20
43.33
43.37
41.26
37.12
31.33
24.46
17.12
9.86
2.98
-3.38
-9.17
-14.22
-18.17
-20.43
-20.29
-17.26
-11.25
-2.79
7.05
16.91
25.50
31.97
36.01
37.73
37.41
35.36
31.77
26.87
20.97
14.53
8.08
2.03
-3.43
-8.42
-13.14
-17.76
-22.23
-26.20
-29.24
-31.01
-31.49
-31.01
-30.16
-29.53
-29.48
-30.00
-30.77
-31.37
-31.47
-31.00
-30.18
-29.43
-29.18
-29.76
-31.21
-33.15
-34.84
-35.38
-33.93
-30.06
-23.85
-15.93
-7.39
0.63
7.21
11.87
14.62
15.80
15.80
15.07
13.87
12.24
10.25
8.08
6.08
4.69
4.19
4.71
6.42
9.37
13.37
18.04
22.89
27.44
31.39
34.62
37.30
40.14
43.72
48.08
52.71
56.83
59.65
60.79
60.22
58.55
57.25
57.81
61.15
67.32
75.63
84.91
94.26
103.10
107.88
106.29
98.26
86.09
72.73
60.12
48.76
39.08
29.80
20.32
11.21
3.32
-2.81
-7.61
-10.48
-11.71
-11.90
-11.91
-12.32
-13.23
-14.59
-16.52
-19.36
-23.48
-29.50
-37.92
-49.29
-63.85
-81.17
-100.41
-120.31
-139.47
-156.47
-170.35
-180.48
-186.75
-189.15
-187.31
-180.36
-166.85
-145.21
-114.56
-75.70
-31.41
13.92
55.53
89.73
114.82
131.11
140.31
144.48
145.35
144.18
141.85
139.06
136.13
132.66
127.55
119.36
107.06
90.78
72.16
53.94
39.05
29.57
25.95
26.60
28.14
26.08
16.11
-4.59
-36.06
-74.79
-114.28
-146.69
-165.23
-166.58
-152.02
-126.59
-97.11
-69.49
-46.85
-29.03
-13.77
1.18
16.14
28.80
35.31
32.50
19.95
0.70
-19.92
-36.60
-46.49
-50.04
-50.21
-50.44
-52.76
-57.04
-61.79
-65.56
-68.09
-70.34
-73.67
-78.61
-84.56
-89.98
-93.24
-93.45
-90.94
-86.99
-83.22
-80.81
-79.94
-79.78
-78.88
-75.72
-69.41
-60.03
-48.53
-36.27
-24.54
-14.08
-5.09
2.78
10.06
17.26
24.58
31.88
38.60
43.84
46.78
46.96
44.66
40.82
36.65
33.21
31.11
30.53
31.55
34.44
39.60
47.15
56.58
66.64
75.85
83.17
88.53
92.76
96.92
101.52
106.04
109.10
109.08
104.84
96.27
84.24
70.33
56.24
43.39
32.64
24.29
18.13
13.74
10.74
8.94
8.48
9.48
11.96
15.65
20.04
24.57
28.83
32.60
35.80
38.45
40.52
41.98
42.84
43.17
43.12
42.78
42.27
41.59
40.77
39.71
38.24
36.18
33.36
29.87
26.04
22.40
19.32
16.91
14.88
12.69
9.90
6.32
2.16
-2.07
-5.76
-8.38
-9.56
-9.20
-7.44
-4.69
-1.60
1.06
2.61
2.71
1.44
-0.73
-3.20
-5.47
-7.34
-8.92
-10.38
-11.85
-13.28
-14.49
-15.35
-15.86
-16.22
-16.69
-17.43
-18.43
-19.59
-20.86
-22.30
-24.10
-26.30
-28.76
-31.14
-33.03
-34.16
-34.50
-34.22
-33.49
-32.46
-31.21
-29.85
-28.56
-27.51
-26.67
-25.63
-23.73
-20.33
-15.25
-8.95
-2.44
3.18
7.19
9.48
10.45
10.62
10.32
9.56
8.17
6.09
3.51
0.89
-1.36
-3.04
-4.21
-5.11
-5.90
-6.51
-6.67
-6.10
-4.74
-2.80
-0.76
0.85
1.67
1.57
0.67
-0.76
-2.35
-3.83
-4.99
-5.76
-6.19
-6.45
-6.65
-6.80
-6.66
-5.85
-3.92
-0.63
3.85
9.00
14.08
18.41
21.58
23.47
24.14
23.68
22.01
18.91
14.30
8.38
1.75
-4.75
-10.33
-14.56
-17.48
-19.42
-20.88
-22.11
-23.10
-23.67
-23.74
-23.37
-22.84
-22.46
-22.41
-22.71
-23.27
-24.04
-25.07
-26.45
-28.23
-30.23
-32.16
-33.54
-33.97
-33.14
-30.98
-27.61
-23.17
-17.93
-12.20
-6.43
-1.20
2.94
5.63
6.88
7.04
6.72
6.37
6.13
5.88
5.35
4.40
3.20
2.10
1.48
1.52
2.14
3.05
3.98
4.71
5.09
4.97
4.21
2.70
0.57
-1.83
-3.98
-5.46
-6.14
-6.32
-6.48
-7.12
-8.38
-10.03
-11.62
-12.77
-13.24
-12.98
-12.01
-10.27
-7.72
-4.49
-0.96
2.18
4.22
4.69
3.49
0.99
-2.15
-5.28
-7.82
-9.55
-10.49
-10.97
-11.36
-11.94
-12.68
-13.27
-13.30
-12.47
-10.79
-8.57
-6.30
-4.46
-3.33
-2.98
-3.30
-4.15
-5.31
-6.63
-7.98
-9.28
-10.47
-11.50
-12.17
-12.12
-10.85
-7.87
-2.97
3.68
11.49
19.54
26.86
32.60
36.15
37.23
35.94
32.67
28.07
22.85
17.55
12.39
7.30
2.04
-3.56
-9.36
-15.03
-20.08
-24.19
-27.26
-29.36
-30.65
-31.30
-31.46
-31.31
-31.11
-31.13
-31.59
-32.59
-34.04
-35.71
-37.23
-38.22
-38.42
-37.83
-36.73
-35.52
-34.58
-34.03
-33.80
-33.72
-33.77
-34.10
-34.89
-36.22
-37.82
-39.43
-41.03
-43.19
-46.91
-53.09
-61.82
-71.98
-81.63
-88.72
-92.01
-91.53
-88.35
-83.96
-79.57
-75.70
-72.32
-69.06
-65.14
-59.25
-49.52
-33.88
-11.18
17.72
49.47
79.06
101.61
114.35
117.68
114.82
109.99
106.31
104.35
102.04
96.25
84.55
66.74
45.00
22.77
3.21
-11.88
-22.14
-27.98
-29.72
-27.31
-20.75
-10.61
1.80
14.95
27.83
40.27
52.40
63.62
72.01
74.74
69.63
56.71
38.83
20.65
6.48
-1.86
-5.83
-9.45
-17.47
-33.23
-57.63
-89.03
-124.36
-160.22
-193.45
-221.14
-240.30
-248.12
-242.79
-224.84
-197.83
-167.86
-141.66
-124.01
-115.99
-114.75
-115.04
-111.75
-101.91
-85.60
-65.29
-44.49
-26.45
-13.41
-6.34
-4.95
-7.74
-12.26
-15.48
-14.70
-8.41
3.17
18.18
33.91
47.85
58.65
66.30
71.83
76.61
81.57
86.90
92.04
96.02
97.78
96.56
91.99
84.19
73.76
61.57
48.62
35.83
23.85
12.97
3.23
-5.39
-12.82
-18.88
-23.35
-26.10
-27.24
-27.06
-26.05
-24.92
-24.66
-26.34
-31.02
-39.08
-49.87
-61.60
-71.67
-77.59
-77.76
-71.96
-61.24
-47.27
-31.72
-15.91
-0.91
12.26
22.53
29.02
31.48
30.60
27.83
24.97
23.39
23.56
25.01
26.79
28.00
28.32
28.15
28.33
29.66
32.37
35.86
38.77
39.45
36.61
29.90
20.24
9.51
0.02
-6.29
-8.32
-5.97
0.10
8.82
19.01
29.48
39.13
46.96
52.22
54.51
53.86
50.59
45.28
38.66
31.66
25.27
20.56
18.36
19.07
22.53
28.07
34.60
40.91
45.78
48.24
47.57
43.56
36.52
27.50
18.15
10.66
7.32
10.03
19.68
35.81
56.59
79.18
100.54
118.16
130.63
137.68
139.95
138.52
134.51
128.94
122.52
115.75
108.84
101.87
94.88
87.97
81.35
75.26
69.98
65.77
62.79
60.97
59.88
58.60
55.78
50.00
40.28
26.41
9.07
-10.42
-30.48
-49.50
-65.93
-78.30
-85.21
-85.73
-79.77
-68.21
-52.74
-35.35
-17.83
-1.53
12.71
24.38
33.22
39.16
42.43
43.55
43.34
42.73
42.62
43.74
46.52
50.98
56.76
63.19
69.44
74.71
78.49
80.55
80.91
79.60
76.50
71.38
64.01
54.37
42.83
30.10
17.02
4.27
-7.78
-18.95
-28.86
-36.63
-40.85
-40.05
-33.34
-21.13
-5.14
11.98
27.56
39.75
47.87
52.32
54.02
53.76
51.86
48.17
42.40
34.46
24.76
14.13
3.62
-5.94
-14.08
-20.85
-26.52
-31.36
-35.45
-38.61
-40.63
-41.44
-41.26
-40.56
-39.92
-39.83
-40.65
-42.54
-45.55
-49.63
-54.42
-59.15
-62.50
-62.80
-58.48
-48.76
-34.05
-16.04
2.73
19.69
33.07
42.33
48.07
51.50
53.64
55.02
55.55
54.97
53.22
50.69
48.15
46.32
45.58
45.89
46.89
48.24
49.80
51.71
54.09
56.80
59.39
61.07
60.99
58.47
53.14
45.05
34.53
22.14
8.52
-5.70
-20.04
-34.23
-48.23
-62.17
-76.13
-89.68
-101.91
-111.50
-117.09
-117.61
-112.70
-102.98
-89.93
-75.47
-61.08
-47.59
-35.24
-23.96
-13.74
-4.75
2.67
8.22
11.99
15.03
18.61
23.57
29.85
36.68
42.92
47.48
49.66
49.34
48.23
48.12
49.78
52.53
55.09
56.34
55.73
53.24
49.31
47.39
50.41
58.91
70.51
81.73
89.83
93.48
92.55
87.79
84.69
87.75
97.60
110.48
121.52
127.77
129.05
127.30
125.30
131.18
150.99
185.46
229.84
278.16
326.36
371.98
412.50
410.22
341.95
213.63
59.95
-81.45
-189.56
-261.07
-302.85
-325.00
-336.59
-337.73
-326.44
-303.42
-274.46
-246.73
-225.32
-212.05
-206.22
-206.35
-206.01
-200.06
-187.82
-172.65
-159.14
-151.03
-150.66
-158.95
-175.38
-193.79
-205.57
-199.36
-172.20
-126.56
-69.33
-10.81
42.24
83.35
109.33
118.59
110.66
85.89
47.68
2.95
-38.98
-69.65
-85.34
-87.76
-84.43
-84.96
-97.83
-123.75
-158.92
-194.57
-219.64
-225.11
-206.85
-167.77
-114.73
-56.04
1.15
52.74
97.82
134.82
160.11
170.66
163.78
139.96
107.32
70.42
34.90
6.99
-8.21
-8.11
6.66
30.62
59.55
92.06
128.23
167.66
201.04
215.34
200.91
166.66
117.98
62.58
8.13
-36.10
-63.90
-73.88
-68.01
-50.63
-27.64
-6.99
5.88
8.27
-0.59
-19.22
-44.11
-66.24
-75.64
-67.95
-48.38
-24.61
-1.72
17.83
33.66
46.35
56.16
62.96
66.35
65.81
61.79
56.85
51.51
45.73
39.56
32.41
23.61
12.47
-1.41
-17.26
-34.05
-53.98
-79.94
-108.33
-138.19
-169.76
-203.74
-240.34
-278.04
-313.56
-344.94
-368.22
-378.49
-373.63
-355.21
-328.21
-298.79
-271.66
-233.11
-181.47
-124.41
-72.30
-31.93
-5.05
9.44
14.05
12.05
7.73
1.24
-6.60
-13.44
-16.99
-15.82
-9.64
1.36
17.54
35.86
53.56
70.56
89.11
111.96
141.24
177.63
219.91
264.53
305.44
334.44
344.99
334.87
307.13
269.33
230.89
199.87
180.12
170.38
165.49
159.76
149.45
133.59
113.30
90.63
67.56
45.69
26.33
10.72
0.01
-4.92
-4.05
1.51
9.67
17.77
23.22
24.14
20.16
12.51
3.84
-2.70
-4.50
-0.71
7.47
17.13
24.91
28.38
26.88
21.53
14.38
7.20
0.65
-5.86
-13.51
-23.18
-34.71
-46.84
-57.82
-66.30
-71.88
-75.27
-77.66
-79.98
-82.44
-84.37
-84.60
-82.09
-76.49
-68.35
-58.99
-50.04
-42.70
-37.23
-32.77
-27.68
-20.40
-10.29
1.89
14.15
24.11
29.95
30.95
27.56
20.78
11.82
1.84
-7.93
-15.99
-20.71
-20.75
-15.75
-6.54
5.01
16.87
27.61
36.89
45.35
53.93
63.14
72.61
81.11
87.09
89.17
86.67
79.69
69.05
55.98
41.82
27.79
14.87
3.59
-5.93
-13.94
-20.85
-27.09
-33.02
-38.86
-44.66
-50.33
-55.59
-60.07
-63.39
-65.37
-66.21
-66.60
-67.56
-70.11
-74.88
-81.66
-89.25
-95.74
-99.03
-97.55
-90.77
-79.54
-65.73
-51.61
-39.12
-29.36
-22.48
-17.99
-15.14
-13.26
-11.92
-10.95
-10.32
-10.07
-10.27
-10.94
-12.04
-13.54
-15.33
-17.28
-19.21
-20.79
-21.63
-21.38
-19.80
-16.83
-12.62
-7.19
-0.50
7.60
17.08
27.37
37.27
45.08
49.11
48.26
42.45
32.69
20.72
8.38
-2.95
-12.67
-20.83
-27.58
-32.51
-34.35
-31.15
-21.15
-3.92
18.96
43.90
66.37
82.45
90.10
89.61
83.14
73.77
65.00
60.70
65.17
82.15
112.97
154.57
198.88
234.74
251.85
245.05
216.39
173.85
127.43
84.76
48.76
18.29
-9.11
-34.60
-57.07
-74.21
-84.59
-88.85
-89.44
-89.18
-89.76
-91.19
-92.39
-92.44
-91.38
-90.08
-89.31
-88.94
-87.84
-84.67
-78.74
-70.30
-60.08
-48.48
-35.06
-18.87
0.65
22.74
45.18
64.95
79.45
87.43
89.10
85.59
78.09
67.38
53.78
37.70
20.00
2.15
-14.06
-27.08
-36.22
-41.96
-45.66
-48.95
-53.10
-58.49
-64.72
-70.67
-74.94
-76.03
-72.72
-64.44
-51.71
-36.20
-20.49
-7.17
2.25
7.90
11.68
16.19
23.48
33.94
46.09
57.32
65.08
68.10
66.68
62.43
57.39
53.43
51.82
53.35
58.29
66.10
75.11
82.45
84.59
78.57
63.21
39.83
11.83
-16.61
-42.01
-62.59
-78.48
-90.96
-101.43
-110.59
-118.05
-122.54
-122.46
-116.68
-105.12
-89.06
-70.86
-53.34
-39.07
-29.46
-24.39
-22.17
-20.17
-15.77
-7.39
4.83
19.12
32.73
43.17
49.30
51.68
52.34
53.91
58.84
68.57
83.29
101.65
120.92
137.36
147.02
146.89
135.90
115.42
88.73
59.87
32.29
7.92
-12.95
-31.01
-47.10
-61.54
-74.02
-83.70
-89.60
-91.05
-87.92
-80.84
-71.00
-59.90
-48.83
-38.51
-29.07
-20.37
-12.46
-5.81
-1.15
1.03
1.08
0.29
0.50
3.29
9.21
17.44
26.18
33.47
37.97
39.51
38.99
37.97
37.83
39.25
41.85
44.38
45.11
42.50
35.82
25.39
12.48
-1.24
-14.46
-26.95
-39.66
-54.12
-71.20
-90.02
-107.63
-119.90
-123.28
-116.50
-101.36
-81.93
-62.87
-47.59
-37.38
-31.65
-28.84
-27.15
-24.74
-19.72
-10.41
3.73
21.11
37.73
48.40
49.07
38.98
21.50
3.00
-9.66
-11.47
-0.90
20.00
46.65
73.53
95.98
111.38
119.45
121.48
118.83
111.59
98.37
77.41
48.58
14.83
-18.21
-44.29
-59.48
-64.04
-62.12
-59.40
-60.26
-65.96
-74.83
-83.97
-91.10
-95.57
-98.09
-99.66
-100.43
-99.23
-94.14
-83.56
-67.30
-47.03
-25.80
-6.93
7.26
16.10
20.53
22.36
23.33
24.49
26.03
27.61
28.76
29.22
28.98
28.23
27.25
26.29
25.61
25.45
25.92
26.97
28.33
29.68
30.74
31.41
31.65
31.48
30.85
29.51
27.04
22.91
16.67
8.07
-2.90
-15.89
-30.08
-44.20
-56.70
-66.17
-71.77
-73.43
-71.81
-68.11
-63.63
-59.23
-55.24
-51.67
-48.43
-45.74
-43.85
-42.93
-43.19
-44.73
-47.16
-49.43
-50.00
-47.32
-40.56
-29.66
-15.58
-0.72
11.58
18.47
18.97
13.97
5.95
-2.58
-9.27
-12.71
-13.50
-14.11
-17.33
-24.62
-35.85
-48.92
-60.79
-66.86
-62.03
-42.92
-9.38
35.90
88.37
142.00
191.03
224.16
230.52
209.63
173.40
136.25
106.12
86.02
71.36
59.58
50.55
46.78
51.53
65.53
86.13
108.28
126.63
136.66
136.09
124.42
103.77
78.31
52.50
29.63
11.53
-1.03
-8.51
-11.81
-12.72
-13.09
-14.72
-19.72
-30.09
-46.44
-66.90
-87.47
-103.02
-109.67
-106.04
-93.88
-77.41
-61.77
-50.79
-45.67
-45.10
-46.26
-46.41
-43.75
-37.45
-27.44
-13.95
2.59
21.26
40.30
57.22
69.41
75.17
74.44
68.80
60.63
52.05
44.05
36.36
28.06
18.29
7.02
-4.99
-16.54
-26.79
-35.71
-44.13
-53.16
-63.45
-74.66
-85.48
-94.15
-99.29
-100.44
-98.26
-94.05
-89.08
-84.05
-78.85
-72.84
-65.45
-56.53
-46.68
-36.89
-28.26
-21.47
-16.61
-13.30
-10.90
-8.87
-6.90
-4.89
-2.82
-0.60
1.89
4.70
7.74
10.79
13.50
15.53
16.64
16.80
16.14
14.99
13.75
12.81
12.33
12.22
12.27
12.32
12.42
12.93
14.39
17.33
22.08
28.71
36.95
46.19
55.42
63.39
68.86
71.02
69.93
66.69
63.21
61.63
63.59
69.69
79.37
91.19
103.39
114.38
123.03
128.67
130.99
129.95
125.74
118.86
109.98
99.66
88.10
74.89
59.07
39.66
16.36
-10.05
-37.66
-63.91
-86.36
-103.32
-114.16
-119.11
-118.97
-114.85
-108.07
-100.20
-92.96
-87.86
-85.71
-86.28
-88.38
-90.31
-90.53
-88.08
-82.51
-73.57
-60.82
-43.74
-22.38
1.95
26.31
46.82
60.02
64.27
59.96
48.83
32.68
12.68
-10.35
-35.01
-58.57
-77.36
-88.09
-89.42
-82.69
-71.27
-58.95
-48.40
-40.44
-34.53
-29.72
-25.55
-22.22
-20.22
-19.83
-20.88
-22.79
-24.81
-26.29
-26.97
-26.99
-26.79
-26.88
-27.56
-28.80
-30.24
-31.27
-31.17
-29.24
-24.86
-17.61
-7.56
4.55
17.40
29.31
38.69
44.35
45.64
42.46
35.10
24.21
10.70
-4.30
-19.70
-34.67
-48.69
-61.53
-72.97
-82.47
-89.18
-92.06
-90.32
-83.64
-72.27
-57.10
-39.38
-20.60
-2.23
14.64
29.55
42.67
54.56
65.77
76.28
85.39
91.93
94.73
93.05
86.70
75.91
61.16
43.19
23.07
2.42
-16.62
-31.76
-41.13
-43.81
-40.28
-32.30
-22.44
-13.45
-7.47
-5.59
-7.70
-12.62
-18.55
-23.56
-26.03
-24.96
-20.15
-12.15
-2.13
8.36
17.77
24.80
28.68
29.23
26.95
22.82
18.14
14.15
11.67
10.82
10.92
10.81
9.19
5.10
-1.78
-11.08
-21.94
-33.15
-43.43
-51.68
-57.22
-59.91
-60.10
-58.38
-55.32
-51.36
-46.79
-41.87
-36.83
-31.71
-26.21
-19.69
-11.45
-1.16
10.70
22.87
33.61
41.38
45.37
45.67
43.08
38.67
33.35
27.72
22.07
16.56
11.31
6.48
2.21
-1.49
-4.79
-7.82
-10.48
-12.31
-12.68
-11.18
-8.05
-4.29
-1.36
-0.59
-2.69
-7.61
-14.79
-23.44
-32.71
-41.67
-49.06
-53.44
-53.64
-49.24
-40.85
-30.07
-18.76
-8.39
0.36
7.56
13.69
19.09
23.67
26.87
28.10
27.06
23.97
19.54
14.55
9.71
5.38
1.53
-1.98
-5.09
-7.42
-8.35
-7.38
-4.54
-0.21
4.77
9.17
11.59
10.79
5.93
-3.04
-15.33
-29.36
-42.40
-51.75
-55.89
-55.00
-50.39
-43.89
-36.48
-28.45
-19.65
-8.55
6.08
23.78
42.35
59.07
71.36
78.78
81.75
81.03
79.46
79.78
82.47
85.64
86.82
83.70
77.36
70.01
64.25
65.01
76.75
100.63
134.19
173.53
213.95
253.77
291.78
310.27
296.68
253.39
196.82
144.09
111.83
94.01
84.56
79.72
78.05
78.06
80.83
85.59
89.15
88.03
79.15
63.41
42.51
17.92
-7.30
-29.94
-48.70
-64.39
-78.46
-92.88
-107.46
-121.79
-135.44
-146.56
-152.85
-153.54
-149.92
-144.40
-139.98
-138.00
-138.96
-142.76
-148.10
-153.17
-156.75
-158.45
-158.22
-156.36
-152.49
-146.23
-137.35
-125.51
-110.49
-92.76
-73.50
-54.45
-37.54
-24.16
-14.93
-9.72
-7.68
-7.61
-8.35
-8.95
-8.75
-7.26
-4.26
0.16
5.48
10.72
14.84
17.07
17.30
16.09
14.41
13.18
12.82
13.23
13.94
14.40
14.21
13.23
11.49
9.15
6.53
4.07
2.28
1.62
2.27
4.04
6.43
8.79
10.72
12.19
13.64
15.64
18.55
22.32
26.41
29.99
32.35
33.23
32.92
32.22
31.95
32.60
34.00
35.36
35.47
33.23
27.97
19.74
9.14
-2.84
-15.02
-26.31
-35.71
-42.35
-45.63
-45.32
-41.66
-35.32
-27.17
-17.94
-8.10
2.12
12.52
22.66
31.75
38.86
43.25
44.61
43.27
39.88
35.23
30.06
25.02
20.73
17.75
16.48
16.77
17.89
18.56
17.41
13.45
6.49
-2.75
-13.00
-22.84
-31.15
-37.30
-41.12
-42.71
-42.22
-39.83
-35.76
-30.36
-24.11
-17.61
-11.30
-5.39
0.20
5.69
11.07
16.07
20.06
22.27
22.08
19.35
14.54
8.53
2.40
-2.96
-7.11
-10.04
-12.01
-13.25
-13.87
-13.78
-12.90
-11.34
-9.49
-8.02
-7.65
-8.89
-11.86
-16.11
-20.74
-24.60
-26.64
-26.17
-23.16
-18.16
-12.02
-5.64
0.30
5.42
9.53
12.58
14.64
15.95
16.95
18.16
19.90
22.05
23.97
24.81
23.87
20.94
16.36
10.83
5.06
-0.49
-5.61
-10.18
-14.02
-16.82
-18.31
-18.41
-17.44
-15.98
-14.86
-14.77
-16.09
-18.64
-21.68
-24.08
-24.72
-22.79
-18.08
-11.02
-2.36
6.99
16.27
24.87
32.32
38.17
41.93
43.24
41.92
38.20
32.77
26.65
20.99
16.70
14.17
13.10
12.68
11.91
10.15
7.30
3.79
0.32
-2.55
-4.57
-5.80
-6.35
-6.21
-5.31
-3.70
-1.74
-0.08
0.52
-0.28
-2.17
-4.17
-5.04
-3.86
-0.51
4.18
8.85
12.09
13.10
11.93
9.33
6.31
3.61
1.49
-0.31
-2.29
-4.83
-7.95
-11.37
-14.63
-17.33
-19.27
-20.44
-20.95
-20.78
-19.76
-17.65
-14.34
-10.11
-5.64
-1.88
0.41
0.92
-0.07
-1.87
-3.76
-5.21
-6.08
-6.40
-6.25
-5.54
-4.10
-1.86
1.10
4.51
8.08
11.56
14.79
17.57
19.60
20.55
20.29
19.06
17.37
15.86
14.91
14.70
15.11
16.05
17.43
19.09
20.68
21.50
20.82
18.31
14.36
10.06
6.74
5.22
5.33
5.92
5.45
2.79
-2.20
-8.59
-14.87
-19.57
-21.81
-21.57
-19.48
-16.54
-13.62
-11.32
-9.82
-9.03
-8.75
-8.76
-9.01
-9.55
-10.51
-11.93
-13.75
-15.62
-17.01
-17.30
-15.96
-12.93
-8.58
-3.72
0.61
3.58
4.70
4.02
2.04
-0.40
-2.44
-3.34
-2.77
-0.94
1.50
3.51
4.09
2.71
-0.41
-4.38
-7.91
-9.91
-9.92
-8.07
-4.98
-1.34
2.42
6.09
9.58
12.68
14.99
16.18
16.22
15.53
14.86
14.86
15.63
16.65
16.90
15.61
12.70
9.10
6.33
5.81
8.14
12.70
18.02
22.32
24.28
23.46
20.22
15.35
9.60
3.43
-3.00
-9.52
-15.80
-21.22
-25.12
-26.99
-26.76
-24.81
-21.84
-18.62
-15.84
-13.84
-12.70
-12.26
-12.32
-12.65
-13.06
-13.39
-13.43
-12.95
-11.72
-9.62
-6.81
-3.77
-1.15
0.43
0.71
-0.03
-1.07
-1.58
-1.05
0.44
2.27
3.59
3.77
2.69
0.70
-1.53
-3.39
-4.50
-4.83
-4.47
-3.56
-2.13
-0.15
2.32
5.05
7.64
9.60
10.59
10.54
9.71
8.58
7.66
7.20
7.15
7.17
6.92
6.28
5.53
5.22
5.86
7.55
9.83
11.79
12.48
11.38
8.61
4.86
1.08
-1.94
-3.82
-4.67
-5.01
-5.44
-6.45
-8.23
-10.70
-13.57
-16.45
-18.94
-20.69
-21.32
-20.51
-18.06
-14.00
-8.75
-3.02
2.23
6.15
8.18
8.21
6.55
3.79
0.56
-2.55
-5.02
-6.50
-6.71
-5.63
-3.52
-0.98
1.29
2.69
3.04
2.71
2.44
2.92
4.39
6.50
8.49
9.55
9.32
7.89
5.71
3.31
1.04
-0.83
-2.09
-2.46
-1.64
0.52
3.81
7.64
11.22
13.87
15.26
15.52
15.03
14.17
13.21
12.18
10.96
9.48
7.76
5.90
4.10
2.55
1.39
0.69
0.41
0.42
0.46
0.24
-0.43
-1.53
-2.76
-3.73
-4.08
-3.80
-3.20
-2.88
-3.43
-5.15
-7.93
-11.24
-14.31
-16.39
-16.93
-15.74
-13.01
-9.12
-4.58
0.14
4.56
8.26
10.85
12.02
11.71
10.16
7.89
5.58
3.79
2.84
2.69
3.11
3.85
4.73
5.67
6.60
7.38
7.83
7.78
7.13
5.90
4.16
2.08
-0.21
-2.47
-4.44
-5.87
-6.64
-7.01
-7.43
-8.44
-10.30
-12.71
-14.85
-15.69
-14.54
-11.36
-6.87
-2.20
1.58
3.84
4.54
4.02
2.73
0.93
-1.22
-3.54
-5.65
-7.06
-7.42
-6.71
-5.30
-3.83
-2.81
-2.50
-2.89
-3.84
-5.28
-7.20
-9.55
-12.12
-14.49
-16.14
-16.73
-16.23
-15.01
-13.66
-12.73
-12.55
-13.14
-14.20
-15.20
-15.59
-14.96
-13.21
-10.51
-7.24
-3.79
-0.46
2.58
5.27
7.50
9.15
9.95
9.78
8.66
6.89
4.90
3.20
2.15
1.85
2.17
2.77
3.28
3.48
3.27
2.71
1.88
0.83
-0.45
-1.86
-3.10
-3.65
-2.92
-0.64
2.93
6.84
9.79
10.65
9.09
5.72
1.90
-0.90
-1.75
-0.65
1.62
3.96
5.53
6.10
5.92
5.48
5.10
4.79
4.33
3.51
2.35
1.14
0.29
0.10
0.56
1.32
1.87
1.85
1.19
0.13
-1.03
-2.10
-3.25
-4.89
-7.42
-10.89
-14.87
-18.42
-20.57
-20.71
-18.96
-16.11
-13.21
-11.00
-9.57
-8.28
-6.18
-2.51
2.95
9.74
17.01
24.00
30.40
36.36
42.41
49.01
56.39
64.37
72.49
80.02
86.23
90.52
92.43
91.92
89.42
85.72
81.89
78.83
76.85
75.52
73.79
70.42
64.51
55.85
44.95
32.77
20.30
8.28
-2.84
-12.89
-21.65
-28.77
-33.75
-36.03
-35.21
-31.27
-24.53
-15.72
-5.94
3.50
11.20
15.91
16.84
13.85
7.54
-0.89
-9.82
-17.72
-23.40
-26.27
-26.43
-24.45
-21.38
-18.34
-16.35
-16.03
-17.45
-20.15
-23.34
-26.25
-28.24
-29.03
-28.58
-27.06
-24.71
-21.86
-18.82
-15.86
-13.17
-10.83
-8.99
-7.78
-7.25
-7.22
-7.09
-5.89
-2.59
3.54
12.68
24.45
38.16
53.10
68.47
83.29
96.32
106.26
112.37
115.12
116.29
118.35
123.27
131.30
140.54
147.33
147.62
138.26
118.15
88.68
53.41
17.34
-14.51
-39.04
-56.54
-70.86
-87.86
-112.40
-145.46
-183.16
-218.02
-242.27
-250.88
-243.13
-222.18
-193.35
-162.49
-135.29
-116.73
-110.12
-115.61
-129.23
-143.66
-151.52
-149.27
-139.38
-129.16
-126.66
-136.17
-156.36
-181.87
-207.01
-229.12
-248.93
-268.27
-287.11
-302.13
-307.98
-300.41
-278.89
-247.17
-211.36
-176.98
-146.78
-120.24
-94.74
-67.59
-37.55
-5.39
26.71
56.22
81.53
102.84
122.39
143.92
171.21
206.30
248.30
293.06
334.19
364.85
379.46
374.81
350.56
309.17
255.61
196.65
139.69
90.90
53.60
27.29
8.22
-8.82
-28.15
-51.50
-77.68
-103.52
-125.35
-140.17
-146.13
-142.75
-130.80
-112.29
-90.09
-67.32
-46.42
-28.42
-12.77
2.28
18.84
38.33
60.94
85.39
109.22
129.46
143.48
149.88
148.83
142.05
132.20
122.17
114.49
110.87
112.07
117.78
126.70
136.71
145.51
151.18
153.06
152.06
150.18
149.42
150.90
154.50
158.98
162.86
164.63
163.75
160.99
157.77
155.37
153.95
152.37
147.86
137.09
116.10
82.92
38.87
-11.53
-61.80
-105.56
-137.72
-156.38
-162.48
-161.49
-160.24
-164.76
-178.59
-201.52
-229.84
-256.92
-277.21
-287.79
-292.13
-296.19
-304.69
-318.78
-335.55
-350.83
-361.10
-367.45
-357.76
-326.94
-278.79
-224.93
-177.59
-142.93
-127.21
-123.87
-126.38
-128.45
-126.96
-120.17
-103.83
-77.79
-44.77
-9.26
25.43
56.46
83.24
104.77
121.03
133.44
144.24
156.51
173.04
196.28
226.36
261.86
298.66
331.29
354.42
363.78
357.85
338.21
309.47
276.67
243.98
212.72
182.14
151.11
119.65
90.05
65.76
49.64
41.66
38.79
36.06
29.09
16.33
-0.46
-17.00
-28.85
-33.54
-31.61
-25.93
-19.96
-15.99
-14.30
-13.59
-12.07
-8.77
-4.05
0.70
4.03
5.37
5.30
5.18
6.25
8.92
12.46
15.39
16.14
13.77
8.31
0.58
-8.23
-17.07
-25.31
-32.65
-38.93
-43.92
-47.35
-49.12
-49.41
-48.82
-48.00
-47.38
-46.87
-45.86
-43.56
-39.32
-33.16
-25.81
-18.50
-12.46
-8.50
-6.74
-6.74
-7.81
-9.29
-10.68
-11.46
-11.08
-8.97
-4.80
1.14
7.96
14.29
18.86
20.94
20.62
18.63
16.03
13.78
12.53
12.46
13.32
14.50
15.19
14.66
12.59
9.12
4.89
0.86
-1.96
-2.75
-1.01
3.17
9.10
15.50
20.88
24.04
24.67
23.53
22.14
22.14
24.43
28.86
34.37
39.62
43.59
45.87
46.46
45.46
42.79
38.27
31.96
24.31
16.16
8.32
1.23
-5.22
-11.37
-17.54
-23.61
-29.11
-33.27
-35.21
-34.11
-29.26
-20.23
-6.99
9.88
29.15
49.11
67.84
83.55
94.80
100.67
100.66
94.71
83.13
66.48
45.45
20.72
-6.90
-36.26
-65.58
-92.35
-113.87
-127.81
-132.79
-128.73
-116.60
-98.07
-75.25
-50.39
-25.92
-4.28
12.29
22.30
25.28
21.62
12.28
-1.78
-19.70
-40.55
-62.78
-83.99
-101.26
-111.91
-114.49
-109.37
-98.66
-85.44
-72.74
-62.75
-56.26
-52.82
-51.05
-49.18
-45.51
-38.79
-28.57
-15.35
-0.64
13.38
24.32
30.33
30.63
25.74
17.36
7.74
-0.90
-6.86
-9.16
-7.49
-2.11
6.15
15.90
25.25
32.08
34.69
32.32
25.41
15.30
3.62
-8.29
-19.66
-30.06
-39.05
-45.90
-49.61
-49.28
-44.40
-34.99
-21.59
-5.18
12.84
30.65
46.17
57.55
63.87
65.56
64.41
62.80
62.68
64.62
67.73
70.07
69.55
64.68
55.08
41.31
24.65
6.70
-10.85
-26.45
-38.88
-47.42
-52.09
-53.50
-52.75
-51.08
-49.54
-48.84
-49.09
-49.76
-49.67
-47.33
-41.50
-31.78
-18.94
-4.52
9.99
24.02
38.11
53.40
70.50
88.51
104.96
116.70
121.19
117.46
106.32
89.58
69.15
46.59
23.28
0.96
-18.10
-31.45
-37.47
-36.22
-29.73
-21.37
-14.64
-11.94
-13.89
-19.44
-26.51
-32.81
-36.48
-36.37
-32.16
-24.33
-13.97
-2.48
8.75
18.63
26.54
32.16
35.28
35.74
33.45
28.65
22.06
14.82
8.13
2.89
-0.56
-2.37
-2.93
-2.76
-2.27
-2.01
-2.69
-5.05
-9.70
-16.81
-25.99
-36.40
-46.95
-56.50
-63.92
-68.16
-68.35
-64.11
-55.91
-45.24
-34.18
-24.71
-17.83
-13.21
-9.43
-4.94
1.03
7.98
14.53
19.26
21.48
21.61
20.72
19.81
19.37
19.12
18.56
17.35
15.65
14.02
13.14
13.29
14.27
15.41
15.92
15.27
13.47
11.04
8.82
7.61
7.94
9.86
13.02
16.60
19.55
20.87
19.90
16.62
11.75
6.47
1.97
-1.12
-3.00
-4.52
-6.69
-10.11
-14.64
-19.59
-24.16
-27.88
-30.74
-32.91
-34.52
-35.43
-35.41
-34.36
-32.56
-30.56
-28.94
-28.00
-27.74
-27.90
-28.20
-28.43
-28.28
-27.35
-25.15
-21.52
-17.00
-12.84
-10.54
-11.17
-14.68
-19.88
-24.99
-28.52
-29.87
-29.46
-28.28
-27.27
-26.85
-26.89
-26.96
-26.49
-25.01
-22.14
-17.78
-12.14
-5.89
0.05
4.86
8.19
10.29
11.85
13.69
16.41
20.45
26.18
33.83
43.35
54.09
64.69
73.49
79.31
82.16
83.29
84.56
87.14
90.58
92.69
90.56
81.95
66.66
46.58
24.88
4.67
-12.21
-25.50
-36.04
-44.96
-52.91
-60.03
-66.14
-71.15
-74.98
-77.37
-77.51
-74.00
-65.46
-51.25
-32.13
-10.33
11.17
29.60
43.25
51.88
56.46
58.56
59.69
60.85
62.40
64.17
65.74
66.69
66.80
66.06
64.46
61.80
57.47
50.52
40.18
26.22
9.34
-8.99
-26.84
-42.41
-54.32
-61.79
-64.59
-63.04
-58.13
-51.51
-45.25
-41.30
-40.65
-42.83
-46.03
-47.84
-46.47
-41.55
-34.22
-26.37
-19.62
-14.57
-10.84
-7.66
-4.77
-2.71
-2.70
-5.86
-12.48
-21.84
-32.43
-42.65
-51.42
-58.57
-64.71
-70.83
-77.70
-85.36
-93.03
-99.43
-103.53
-105.12
-105.08
-104.93
-106.06
-108.88
-112.52
-115.26
-115.43
-111.84
-103.57
-89.45
-68.21
-39.34
-4.51
31.96
64.13
87.03
99.13
103.28
105.36
111.17
123.49
141.06
159.71
175.01
184.48
188.20
187.85
185.06
180.34
173.19
162.98
149.81
134.86
120.06
107.23
97.17
89.36
82.30
74.27
64.21
52.14
39.15
26.73
16.02
7.31
0.01
-6.98
-14.65
-23.46
-33.11
-42.62
-50.65
-56.11
-58.52
-58.34
-56.78
-55.21
-54.52
-54.67
-54.60
-52.78
-48.05
-40.15
-29.98
-19.16
-9.37
-1.65
3.70
7.02
8.78
9.25
8.51
6.67
4.05
1.34
-0.58
-0.99
0.55
3.97
8.90
14.71
20.69
26.02
29.92
31.83
31.65
29.94
27.75
26.20
25.95
26.75
27.63
27.21
24.36
18.58
10.04
-0.64
-12.68
-25.19
-37.08
-47.01
-53.46
-55.24
-51.99
-44.45
-34.28
-23.58
-14.15
-7.03
-2.51
-0.38
-0.32
-2.18
-5.92
-11.44
-18.24
-25.26
-31.13
-34.50
-34.61
-31.78
-27.47
-23.88
-23.16
-26.56
-34.02
-44.28
-55.44
-65.63
-73.58
-78.74
-81.10
-81.06
-79.23
-76.34
-73.31
-70.98
-70.01
-70.65
-72.73
-75.59
-78.30
-79.87
-79.45
-76.52
-70.99
-63.02
-52.85
-40.41
-25.30
-7.00
14.60
38.72
63.66
87.21
107.34
122.86
133.63
140.19
143.33
143.60
141.24
136.37
129.31
120.75
111.67
103.07
95.56
89.23
83.67
78.43
73.19
67.99
62.99
58.21
53.29
47.42
39.70
29.58
17.21
3.48
-10.33
-23.12
-34.40
-44.45
-53.87
-63.07
-71.65
-78.35
-81.43
-79.52
-72.36
-61.23
-48.67
-37.68
-30.74
-29.00
-32.09
-38.36
-45.63
-51.91
-56.02
-57.62
-57.05
-54.67
-50.53
-44.24
-35.46
-24.40
-12.16
-0.50
8.89
15.10
18.46
20.27
22.06
24.83
28.78
33.50
38.37
42.95
46.81
49.36
49.79
47.30
41.67
33.62
24.77
17.04
11.95
10.02
10.80
13.16
15.82
17.84
18.66
18.06
16.03
12.77
8.65
4.24
0.13
-3.24
-5.63
-7.12
-7.92
-8.25
-8.12
-7.32
-5.38
-1.90
3.15
9.18
14.98
19.09
20.32
18.23
13.18
6.21
-1.49
-8.93
-15.49
-20.98
-25.43
-29.03
-32.10
-35.01
-38.11
-41.51
-45.06
-48.27
-50.56
-51.43
-50.63
-48.33
-44.98
-41.36
-38.33
-36.62
-36.56
-37.95
-40.00
-41.60
-41.72
-39.84
-36.10
-31.21
-26.13
-21.67
-18.28
-15.96
-14.26
-12.52
-9.93
-5.83
0.05
7.53
15.89
24.14
31.28
36.56
39.72
41.01
41.13
41.15
42.35
46.03
53.19
64.18
78.41
94.32
109.75
122.58
131.29
135.35
135.22
132.16
127.92
124.43
123.56
126.75
134.56
146.27
159.92
172.85
182.57
187.65
188.04
184.83
179.45
173.01
166.05
158.60
150.58
141.75
131.64
119.33
103.63
83.60
59.21
31.68
3.42
-22.78
-44.55
-60.50
-70.43
-75.26
-76.60
-76.29
-75.95
-76.59
-78.51
-81.44
-85.04
-89.37
-95.05
-102.84
-113.04
-124.98
-137.29
-148.47
-157.66
-164.90
-170.79
-175.96
-180.63
-184.89
-189.12
-194.16
-200.89
-209.37
-218.06
-224.04
-224.11
-216.42
-201.47
-182.07
-162.06
-144.76
-131.83
-123.15
-117.53
-113.55
-110.30
-107.52
-105.41
-104.40
-104.85
-106.71
-109.38
-111.45
-110.88
-105.51
-93.90
-76.00
-53.48
-29.31
-6.63
12.36
27.25
39.46
51.32
64.82
80.59
97.57
113.58
126.56
135.47
140.70
143.56
145.46
147.09
148.09
147.21
142.85
133.59
118.60
97.68
71.31
40.54
6.96
-27.36
-59.96
-88.38
-110.39
-124.59
-130.77
-129.94
-123.91
-114.66
-103.80
-92.41
-81.05
-69.78
-58.49
-46.97
-35.10
-22.97
-10.99
-0.09
8.36
13.09
13.86
11.54
7.73
3.90
0.96
-0.78
-1.37
-1.07
-0.05
2.36
7.13
14.90
25.41
37.69
50.58
62.94
73.81
82.52
89.69
96.87
105.81
117.63
132.68
150.70
170.51
189.74
200.67
196.10
174.04
140.05
103.60
73.24
53.83
46.19
47.86
54.66
62.50
69.14
72.59
70.47
61.31
46.12
28.18
11.90
1.50
-1.05
2.99
9.00
9.53
-2.63
-30.18
-69.92
-114.31
-154.26
-183.43
-199.67
-197.54
-177.88
-147.16
-113.24
-81.29
-56.74
-37.89
-23.65
-13.63
-6.62
-0.17
7.97
20.15
37.61
59.48
83.64
106.73
124.67
135.18
137.88
135.03
130.40
127.01
125.97
127.14
130.40
133.38
134.23
131.07
122.41
107.61
86.79
60.32
28.94
-6.19
-44.00
-82.54
-119.08
-149.86
-170.61
-177.91
-170.83
-151.39
-124.38
-95.88
-70.76
-51.99
-40.61
-36.48
-39.09
-47.76
-61.25
-77.57
-94.12
-107.72
-115.52
-115.62
-107.39
-91.49
-69.79
-44.88
-19.68
3.01
21.47
35.20
44.77
51.12
54.82
55.75
53.49
47.89
39.66
30.43
22.24
16.67
14.33
14.75
16.90
19.75
22.75
25.83
29.16
32.81
36.51
39.64
41.30
40.68
37.29
31.15
22.69
12.61
1.62
-9.61
-20.15
-28.66
-33.18
-31.57
-22.45
-6.15
14.79
36.00
52.46
60.13
57.23
44.72
25.76
4.56
-14.83
-29.62
-38.68
-42.59
-43.20
-43.00
-44.16
-47.93
-54.29
-62.10
-69.75
-75.83
-79.65
-81.23
-81.01
-79.41
-76.57
-72.59
-67.87
-63.53
-61.37
-63.09
-69.51
-79.82
-91.73
-102.25
-108.84
-110.43
-107.60
-101.96
-95.13
-87.79
-79.20
-67.65
-51.30
-29.15
-1.76
28.60
58.30
83.17
99.64
105.64
101.45
89.64
74.37
60.14
50.27
45.97
46.20
48.44
49.91
48.71
44.23
37.07
28.57
20.41
14.23
11.37
12.43
16.75
22.25
25.90
24.75
17.11
3.36
-14.14
-31.85
-46.27
-54.84
-56.26
-50.50
-38.40
-21.50
-1.87
18.25
36.85
52.61
65.29
75.68
85.47
96.62
110.89
129.16
150.95
174.36
196.38
213.67
223.72
225.41
219.35
207.24
190.95
171.73
149.91
125.45
98.65
70.87
44.51
22.40
6.71
-1.85
-4.27
-2.91
-0.60
0.26
-1.65
-6.38
-13.00
-20.20
-26.84
-32.34
-36.63
-40.05
-42.87
-45.08
-46.47
-46.93
-46.76
-46.83
-48.23
-51.82
-57.81
-65.57
-73.95
-81.66
-87.84
-92.16
-94.88
-96.44
-97.26
-97.37
-96.43
-93.91
-89.36
-82.81
-75.02
-67.33
-61.11
-57.07
-54.73
-52.56
-48.65
-41.71
-31.82
-20.40
-9.63
-1.41
3.46
5.47
6.03
6.64
8.24
10.94
14.22
17.34
19.84
21.63
22.91
24.00
25.03
26.03
26.98
28.15
30.05
33.37
38.50
45.29
52.93
60.10
65.42
67.74
66.41
61.30
52.69
41.29
28.23
14.98
3.09
-6.30
-12.93
-17.45
-21.11
-25.07
-29.74
-34.47
-37.85
-38.31
-34.82
-27.23
-16.26
-3.16
10.74
24.46
37.45
49.67
61.38
73.06
85.05
97.26
108.92
118.51
124.05
123.55
115.58
99.76
76.90
49.00
18.94
-10.02
-34.75
-52.98
-63.85
-68.12
-67.91
-66.07
-65.22
-66.89
-71.21
-77.10
-82.97
-87.55
-90.18
-91.01
-90.52
-89.13
-86.90
-83.54
-78.69
-72.24
-64.56
-56.53
-49.22
-43.68
-40.64
-40.51
-43.57
-49.81
-58.86
-69.68
-80.58
-89.47
-94.54
-94.80
-90.49
-82.87
-73.65
-64.42
-56.39
-50.50
-47.72
-49.11
-55.38
-66.30
-80.14
-93.80
-103.80
-107.50
-104.41
-96.53
-87.82
-82.73
-84.59
-94.41
-110.70
-130.28
-149.63
-166.09
-178.38
-186.43
-190.57
-190.87
-186.92
-177.96
-163.47
-143.43
-118.38
-89.14
-56.62
-21.78
14.22
49.81
83.09
112.15
135.46
152.29
162.73
167.66
168.43
166.62
163.64
160.50
157.54
154.47
150.58
145.19
138.01
129.29
119.76
110.36
102.04
95.60
91.62
90.29
91.17
93.10
94.36
93.31
88.93
81.28
71.22
59.80
47.57
34.53
20.58
6.24
-6.97
-16.93
-21.74
-20.74
-14.94
-6.57
1.86
8.52
12.70
14.66
15.08
14.53
13.23
11.08
7.91
3.67
-1.46
-7.04
-12.39
-16.76
-19.45
-19.98
-18.16
-14.05
-8.02
-0.66
7.22
14.60
20.46
23.99
24.98
23.79
21.25
18.14
14.86
11.27
6.83
1.07
-6.00
-13.62
-20.26
-24.03
-23.16
-16.49
-3.96
13.29
33.25
53.46
71.77
86.71
97.64
104.53
107.74
107.75
105.16
100.72
95.12
88.87
81.99
74.09
64.73
53.97
42.73
32.65
25.42
22.02
22.20
24.64
27.57
29.57
29.96
28.77
26.38
23.01
18.49
12.44
4.41
-5.79
-17.99
-31.63
-45.75
-59.00
-69.76
-76.47
-78.06
-74.35
-66.23
-55.34
-43.57
-32.44
-22.77
-14.71
-8.10
-2.87
0.65
1.94
0.51
-3.66
-10.01
-17.43
-24.52
-29.84
-32.09
-30.35
-24.22
-14.05
-1.03
12.98
25.95
36.19
42.83
45.90
45.98
43.75
39.60
33.55
25.45
15.39
4.01
-7.40
-17.16
-23.58
-25.49
-22.56
-15.44
-5.52
5.49
16.02
25.02
31.93
36.59
39.02
39.51
38.60
37.28
36.75
37.97
41.31
46.17
51.31
55.33
57.23
56.69
54.04
49.81
44.50
38.40
31.75
24.93
18.47
12.94
8.73
5.85
3.89
2.23
0.16
-2.87
-7.14
-12.59
-18.76
-24.82
-29.67
-32.26
-31.85
-28.28
-22.09
-14.39
-6.49
0.47
5.87
9.64
12.13
13.78
14.82
15.16
14.50
12.48
9.01
4.33
-1.00
-6.35
-11.13
-14.99
-17.76
-19.34
-19.72
-18.87
-16.92
-14.24
-11.39
-9.02
-7.63
-7.39
-8.08
-9.24
-10.45
-11.55
-12.75
-14.52
-17.34
-21.30
-25.89
-29.97
-32.03
-30.65
-25.11
-15.64
-3.57
9.11
20.39
29.00
34.80
38.75
42.45
47.36
54.18
62.61
71.43
79.03
83.86
84.80
81.32
73.47
61.70
46.91
30.31
13.36
-2.47
-15.99
-26.53
-34.14
-39.40
-43.14
-45.96
-47.95
-48.57
-47.02
-42.78
-36.09
-28.18
-20.91
-16.07
-14.50
-15.69
-17.95
-19.10
-17.51
-12.62
-5.19
3.35
11.53
18.55
24.50
30.08
36.07
42.74
49.50
54.96
57.54
56.18
51.08
43.94
37.47
34.39
36.26
42.73
51.62
59.74
64.08
62.82
55.77
44.10
29.75
14.70
0.49
-12.03
-22.67
-31.76
-39.98
-48.06
-56.66
-66.07
-76.17
-86.13
-94.46
-99.16
-98.33
-90.99
-77.69
-60.61
-42.84
-27.27
-15.47
-7.43
-1.98
2.23
5.96
9.14
11.29
12.09
11.71
10.71
9.68
8.87
8.23
7.52
6.55
5.24
3.58
1.64
-0.42
-2.26
-3.41
-3.36
-1.79
1.37
5.84
11.14
16.60
21.33
24.26
24.31
20.66
13.11
2.27
-10.53
-23.66
-35.57
-45.15
-51.76
-55.19
-55.57
-53.31
-49.17
-44.14
-39.14
-34.50
-29.76
-23.74
-15.23
-3.82
9.59
22.89
33.60
39.88
41.26
38.67
33.90
28.66
23.94
19.92
16.34
13.07
10.38
8.83
8.79
10.05
11.68
12.36
11.11
7.90
3.94
1.24
1.72
6.22
13.92
22.54
29.23
31.73
29.21
22.41
13.21
3.66
-4.66
-11.01
-15.36
-17.95
-19.02
-18.75
-17.41
-15.63
-14.51
-15.25
-18.60
-24.30
-30.89
-36.23
-38.44
-36.80
-32.07
-26.08
-20.69
-16.97
-14.85
-13.58
-12.50
-11.60
-11.48
-12.77
-15.47
-18.70
-21.12
-21.76
-20.60
-18.68
-17.51
-18.11
-20.32
-22.65
-22.92
-19.32
-11.44
-0.54
10.80
19.76
24.40
24.27
20.40
14.75
9.34
5.66
4.25
4.74
6.11
7.09
6.50
3.70
-1.32
-7.73
-14.00
-18.20
-18.56
-14.11
-5.21
6.43
18.21
27.41
32.17
32.07
28.15
22.31
16.50
12.00
9.22
7.85
7.38
7.39
7.64
7.81
7.38
5.55
1.62
-4.62
-12.41
-19.92
-24.76
-24.80
-19.13
-8.62
4.32
16.60
25.56
29.87
29.69
26.25
21.02
15.09
8.81
2.06
-5.48
-13.83
-22.55
-30.65
-36.80
-39.75
-38.86
-34.39
-27.53
-19.98
-13.30
-8.37
-5.30
-3.66
-3.05
-3.47
-5.32
-9.05
-14.74
-21.87
-29.50
-36.58
-42.32
-46.35
-48.51
-48.66
-46.47
-41.42
-33.07
-21.45
-7.35
7.73
21.86
33.31
40.97
44.64
44.83
42.45
38.41
33.33
27.57
21.31
14.69
7.94
1.32
-4.85
-10.19
-14.23
-16.44
-16.26
-13.21
-7.18
1.39
11.35
20.95
28.22
31.60
30.38
24.98
16.74
7.38
-1.69
-9.71
-16.61
-22.54
-27.46
-30.89
-32.05
-30.36
-25.89
-19.54
-12.75
-7.00
-3.24
-1.58
-1.46
-2.03
-2.65
-3.15
-3.77
-4.82
-6.32
-7.91
-8.89
-8.72
-7.27
-5.00
-2.84
-1.68
-2.05
-3.86
-6.50
-9.00
-10.49
-10.28
-8.17
-4.43
0.20
4.61
7.66
8.50
6.94
3.55
-0.47
-3.76
-5.22
-4.41
-1.58
2.58
7.29
11.92
16.10
19.64
22.38
24.14
24.79
24.38
23.18
21.69
20.38
19.53
19.02
18.48
17.51
15.95
13.98
12.07
10.67
9.98
9.85
9.79
9.31
8.05
5.94
3.10
-0.24
-3.90
-7.59
-10.94
-13.43
-14.66
-14.57
-13.66
-12.83
-13.00
-14.54
-17.04
-19.41
-20.43
-19.29
-16.00
-11.23
-5.97
-1.01
3.27
6.78
9.54
11.42
12.24
11.91
10.63
8.90
7.33
6.36
6.14
6.50
7.04
7.39
7.23
6.45
5.06
3.20
1.05
-1.15
-3.14
-4.68
-5.64
-5.99
-5.91
-5.69
-5.78
-6.66
-8.71
-12.08
-16.57
-21.62
-26.40
-29.97
-31.51
-30.60
-27.29
-22.10
-15.89
-9.54
-3.71
1.25
5.27
8.43
10.77
12.24
12.74
12.22
10.75
8.60
6.12
3.67
1.48
-0.36
-1.99
-3.59
-5.41
-7.56
-10.04
-12.73
-15.39
-17.72
-19.26
-19.40
-17.57
-13.50
-7.57
-0.92
4.76
7.82
7.37
3.63
-2.04
-7.77
-11.82
-13.26
-12.00
-8.61
-3.85
1.57
7.11
12.25
16.42
19.08
19.86
18.83
16.55
13.86
11.64
10.47
10.46
11.28
12.31
12.90
12.63
11.42
9.48
7.21
4.94
2.84
0.79
-1.41
-3.93
-6.69
-9.33
-11.41
-12.63
-13.04
-13.03
-13.14
-13.83
-15.24
-17.20
-19.31
-21.14
-22.38
-22.88
-22.70
-21.89
-20.52
-18.63
-16.16
-13.07
-9.43
-5.48
-1.68
1.50
3.84
5.51
7.04
8.96
11.62
14.89
18.31
21.30
23.43
24.60
24.92
24.51
23.32
21.33
18.76
16.18
14.40
14.05
15.52
18.40
21.52
23.37
22.84
19.85
15.34
10.87
7.68
6.71
7.87
10.10
11.87
12.04
10.50
8.09
6.16
5.74
7.86
12.71
19.42
26.27
31.55
34.35
34.98
34.76
35.49
39.99
50.80
69.15
94.20
123.25
152.29
176.87
192.91
191.09
166.24
121.23
67.46
18.73
-15.83
-34.24
-40.58
-40.53
-38.35
-35.90
-34.16
-34.45
-39.04
-48.78
-63.44
-80.95
-97.85
-110.48
-115.38
-110.64
-96.65
-76.07
-52.88
-31.39
-15.06
-5.80
-3.73
-6.73
-11.54
-15.29
-16.97
-17.85
-20.63
-27.55
-38.75
-51.81
-62.61
-67.54
-65.58
-58.86
-51.45
-47.19
-47.71
-52.01
-57.48
-61.63
-63.45
-63.69
-64.16
-66.40
-70.81
-76.46
-81.71
-85.11
-86.09
-85.12
-83.21
-81.13
-78.83
-75.29
-69.11
-59.34
-46.26
-31.56
-17.72
-6.99
-0.44
2.34
2.85
2.81
3.30
4.52
5.97
6.97
7.08
6.30
4.93
3.40
2.13
1.53
1.96
3.76
7.09
11.86
17.72
24.18
30.69
36.79
42.08
46.24
49.04
50.40
50.45
49.50
47.86
45.65
42.63
38.38
32.58
25.52
18.34
12.74
10.33
11.72
16.11
21.44
25.24
25.70
22.35
16.13
8.70
1.59
-4.44
-9.47
-14.05
-18.66
-23.33
-27.54
-30.67
-32.24
-32.21
-30.90
-28.66
-25.65
-21.66
-16.36
-9.67
-2.09
5.31
11.29
14.97
16.25
15.83
14.79
14.07
13.97
14.14
13.81
12.25
9.18
4.88
0.10
-4.15
-6.89
-7.47
-5.60
-1.51
4.18
10.59
16.91
22.66
27.75
32.45
37.05
41.67
46.15
50.05
53.00
54.77
55.33
54.67
52.60
48.72
42.69
34.64
25.35
16.16
8.43
2.97
-0.36
-2.56
-4.99
-8.72
-14.12
-20.74
-27.60
-33.75
-38.64
-42.25
-45.04
-47.59
-50.38
-53.49
-56.55
-58.83
-59.54
-58.13
-54.53
-49.18
-42.70
-35.61
-28.06
-19.94
-11.20
-2.25
6.09
12.80
17.28
19.68
20.89
21.98
23.66
25.78
27.54
27.93
26.32
22.84
18.27
13.64
9.80
7.15
5.57
4.72
4.24
3.93
3.84
4.17
5.09
6.60
8.45
10.21
11.37
11.56
10.75
9.25
7.60
6.33
5.72
5.60
5.48
4.82
3.44
1.71
0.48
0.66
2.69
6.18
10.00
12.76
13.43
11.81
8.57
4.83
1.58
-0.73
-2.32
-3.65
-5.08
-6.60
-7.87
-8.52
-8.49
-8.07
-7.76
-7.93
-8.58
-9.31
-9.54
-8.84
-7.15
-4.76
-2.21
0.01
1.57
2.40
2.59
2.29
1.60
0.59
-0.71
-2.19
-3.62
-4.68
-5.02
-4.40
-2.84
-0.57
2.03
4.58
6.87
8.92
10.92
13.00
15.14
17.05
18.39
18.92
18.75
18.28
18.02
18.34
19.28
20.66
22.17
23.57
24.73
25.42
25.12
23.07
18.60
11.59
2.84
-6.04
-13.24
-17.55
-18.85
-18.18
-17.12
-17.10
-18.76
-21.90
-25.79
-29.67
-33.06
-35.82
-37.93
-39.31
-39.68
-38.74
-36.24
-32.14
-26.58
-19.89
-12.47
-4.84
2.44
8.80
13.78
17.12
18.85
19.32
19.09
18.81
19.05
20.12
21.93
24.10
26.07
27.32
27.59
26.94
25.62
23.93
22.07
20.09
18.05
16.07
14.38
13.16
12.36
11.68
10.67
8.95
6.52
3.75
1.29
-0.25
-0.59
0.11
1.21
1.78
0.83
-2.38
-8.09
-15.77
-24.14
-31.38
-35.70
-35.99
-32.19
-25.39
-17.34
-9.88
-4.24
-0.86
0.57
0.67
0.01
-1.12
-2.60
-4.35
-6.10
-7.43
-7.88
-7.21
-5.54
-3.33
-1.19
0.45
1.60
2.74
4.65
7.97
12.84
18.62
24.16
28.08
29.42
27.96
24.24
19.33
14.35
10.14
7.05
5.06
3.94
3.41
3.17
2.92
2.32
1.07
-1.00
-3.77
-6.82
-9.59
-11.44
-11.93
-10.87
-8.33
-4.66
-0.37
3.92
7.66
10.48
12.31
13.34
13.87
14.16
14.33
14.42
14.61
15.22
16.55
18.61
20.86
22.30
21.92
19.33
15.04
10.33
6.57
4.47
3.79
3.53
2.61
0.43
-2.84
-6.58
-10.12
-13.15
-15.75
-18.18
-20.70
-23.40
-26.24
-29.20
-32.33
-35.62
-38.98
-42.10
-44.49
-45.60
-44.87
-41.95
-36.77
-29.62
-21.18
-12.34
-3.92
3.62
10.27
16.47
22.74
29.41
36.37
43.12
48.89
53.01
55.17
55.47
54.37
52.46
50.24
47.97
45.57
42.68
38.81
33.50
26.62
18.53
10.06
2.39
-3.35
-6.52
-7.12
-5.64
-2.81
0.75
4.58
8.16
10.76
11.47
9.60
5.17
-0.86
-6.93
-11.64
-14.47
-16.03
-17.56
-20.12
-23.86
-27.98
-31.16
-32.44
-31.66
-29.53
-27.11
-25.29
-24.45
-24.46
-24.93
-25.53
-26.13
-26.72
-27.28
-27.61
-27.32
-25.90
-22.89
-18.05
-11.38
-3.21
5.90
15.30
24.37
32.69
40.03
46.32
51.50
55.44
57.99
59.13
59.11
58.36
57.35
56.25
54.78
52.25
47.86
41.01
31.57
20.01
7.25
-5.44
-16.65
-25.07
-29.76
-30.41
-27.46
-21.96
-15.15
-8.06
-1.26
5.05
10.63
14.96
17.20
16.69
13.51
8.81
4.55
2.70
4.30
8.91
14.72
19.46
21.31
19.70
15.39
9.87
4.57
0.28
-2.97
-5.54
-7.70
-9.39
-10.26
-9.99
-8.63
-6.70
-4.98
-4.06
-3.94
-3.81
-2.27
2.26
10.83
23.41
38.51
53.39
64.71
69.59
66.64
56.58
42.04
26.59
13.41
4.27
-0.88
-3.35
-4.85
-6.59
-8.99
-11.90
-15.05
-18.51
-22.58
-27.56
-33.38
-39.48
-44.93
-48.85
-50.63
-50.28
-48.33
-45.62
-42.92
-40.64
-38.63
-36.40
-33.65
-30.66
-28.54
-28.71
-32.23
-38.97
-47.36
-54.87
-58.89
-57.76
-51.30
-40.86
-28.65
-17.01
-7.74
-1.83
0.61
0.05
-2.65
-6.48
-10.33
-12.99
-13.24
-10.19
-3.67
5.46
15.33
23.54
28.10
28.12
24.25
18.25
12.19
7.54
4.71
3.17
1.99
0.42
-1.79
-4.46
-7.29
-10.16
-13.17
-16.52
-20.31
-24.41
-28.40
-31.81
-34.27
-35.76
-36.59
-37.27
-38.27
-39.72
-41.27
-42.15
-41.51
-38.81
-34.06
-27.89
-21.24
-15.02
-9.84
-5.95
-3.43
-2.40
-3.06
-5.56
-9.74
-14.99
-20.33
-24.61
-27.02
-27.33
-26.04
-24.06
-22.33
-21.47
-21.49
-22.02
-22.52
-22.66
-22.45
-22.12
-21.89
-21.77
-21.56
-20.99
-19.98
-18.64
-17.15
-15.56
-13.59
-10.82
-6.97
-2.18
2.90
7.32
10.29
11.51
11.24
10.16
9.13
8.82
9.63
11.62
14.59
18.20
22.07
25.91
29.64
33.24
36.72
39.98
42.81
44.96
46.28
46.71
46.22
44.67
41.83
37.59
32.15
26.18
20.60
16.23
13.38
11.74
10.63
9.33
7.51
5.24
2.84
0.51
-1.74
-4.14
-6.92
-10.10
-13.48
-16.65
-19.23
-21.05
-22.30
-23.44
-25.01
-27.33
-30.17
-32.72
-33.78
-32.08
-26.78
-17.73
-5.40
9.23
25.02
40.81
55.55
68.31
78.44
85.63
90.02
92.10
92.44
91.35
88.65
83.71
75.84
64.81
51.21
36.47
22.55
11.29
3.89
0.55
0.52
2.33
4.28
4.89
3.26
-0.75
-6.59
-13.29
-19.86
-25.60
-30.27
-34.08
-37.47
-40.89
-44.61
-48.67
-52.95
-57.19
-61.07
-64.18
-66.04
-66.13
-64.08
-59.82
-53.73
-46.62
-39.53
-33.42
-28.76
-25.44
-22.87
-20.37
-17.48
-14.21
-10.84
-7.59
-4.44
-1.06
2.93
7.67
12.96
18.24
22.91
26.54
28.94
30.06
29.92
28.51
25.90
22.29
18.06
13.79
10.07
7.39
6.00
5.85
6.66
8.02
9.58
11.22
13.02
15.13
17.56
19.97
21.85
22.65
22.15
20.58
18.54
16.58
14.95
13.43
11.53
8.79
5.01
0.31
-4.92
-10.26
-15.38
-20.08
-24.18
-27.47
-29.77
-30.91
-30.91
-29.98
-28.53
-26.92
-25.41
-23.90
-21.95
-18.88
-14.04
-7.13
1.63
11.43
21.24
30.22
38.02
44.81
51.14
57.49
64.00
70.50
76.66
82.32
87.50
92.16
95.96
98.04
97.37
93.21
85.74
76.11
66.18
57.70
51.70
48.10
45.87
43.61
40.30
35.67
30.22
24.73
19.65
14.66
8.78
0.98
-9.04
-20.33
-31.01
-39.09
-43.58
-45.03
-45.33
-46.64
-50.36
-56.41
-63.50
-69.96
-74.70
-77.71
-79.86
-82.31
-85.78
-90.25
-95.07
-99.37
-102.35
-103.50
-102.59
-99.49
-94.22
-86.92
-77.99
-68.10
-57.98
-48.32
-39.52
-31.72
-24.82
-18.64
-12.95
-7.46
-1.82
4.32
11.13
18.51
26.03
33.17
39.50
44.82
49.06
52.21
54.10
54.41
52.81
49.20
43.91
37.72
31.58
26.36
22.37
19.39
16.71
13.61
9.69
5.07
0.33
-4.01
-7.78
-11.37
-15.39
-20.14
-25.12
-29.16
-30.93
-29.68
-25.78
-20.53
-15.58
-12.18
-10.69
-10.71
-11.52
-12.60
-13.88
-15.59
-17.90
-20.69
-23.51
-25.82
-27.23
-27.70
-27.50
-27.01
-26.59
-26.37
-26.24
-25.95
-25.24
-23.95
-22.13
-20.07
-18.14
-16.71
-15.86
-15.31
-14.49
-12.83
-10.14
-6.88
-4.01
-2.55
-3.03
-5.06
-7.48
-8.78
-7.85
-4.26
1.76
9.69
19.18
30.08
42.15
54.75
66.61
76.25
82.61
85.56
86.02
85.26
84.19
83.09
81.85
80.59
80.03
81.08
83.78
86.54
86.40
80.49
67.93
50.81
33.51
20.54
14.14
13.19
14.01
12.64
6.97
-2.30
-12.61
-21.31
-27.28
-31.29
-35.23
-40.72
-48.11
-56.40
-63.87
-69.03
-71.17
-70.38
-67.12
-61.68
-53.93
-43.47
-30.15
-14.41
2.49
18.67
32.20
41.58
46.26
46.70
44.12
40.18
36.50
34.25
33.94
35.22
37.17
38.66
38.72
36.95
33.44
28.64
22.92
16.62
10.05
3.66
-1.83
-5.75
-7.83
-8.52
-8.91
-10.31
-13.62
-18.87
-25.17
-31.09
-35.13
-36.36
-34.69
-30.94
-26.67
-23.61
-23.05
-25.27
-29.25
-32.94
-33.98
-30.60
-22.19
-9.47
5.90
21.85
36.59
48.98
58.62
65.74
70.94
74.89
78.10
80.87
83.41
86.02
89.24
93.74
100.01
107.95
116.75
124.97
131.13
134.21
133.97
130.84
125.45
118.26
109.44
99.07
87.41
75.12
63.08
52.06
42.41
34.09
26.86
20.40
14.33
7.83
-0.51
-12.77
-31.14
-57.07
-90.49
-129.41
-170.30
-208.93
-241.52
-265.53
-279.99
-285.37
-283.06
-274.83
-262.41
-247.14
-229.90
-211.11
-191.00
-169.99
-148.87
-128.91
-111.57
-97.95
-88.40
-82.28
-78.32
-75.09
-71.70
-67.94
-64.15
-60.71
-57.65
-54.60
-51.05
-46.75
-41.95
-37.33
-33.63
-31.30
-30.35
-30.44
-31.05
-31.85
-32.72
-33.63
-34.49
-34.95
-34.32
-31.77
-26.58
-18.51
-7.99
3.90
15.70
26.03
34.02
39.49
42.86
44.85
46.14
47.18
48.18
49.13
49.96
50.58
50.91
50.91
50.54
49.85
48.87
47.62
46.11
44.28
42.16
39.89
37.72
35.87
34.40
33.10
31.52
29.18
25.82
21.65
17.23
13.34
10.53
8.88
7.92
6.89
5.05
2.07
-1.87
-6.06
-9.53
-11.40
-11.12
-8.62
-4.26
1.33
7.45
13.52
19.09
23.85
27.60
30.19
31.59
31.96
31.61
31.00
30.53
30.41
30.64
30.97
30.95
30.13
28.14
24.88
20.59
15.84
11.29
7.55
4.90
3.28
2.37
1.71
0.92
-0.22
-1.70
-3.37
-4.88
-5.87
-6.01
-5.16
-3.51
-1.55
0.06
0.72
0.22
-1.15
-2.69
-3.63
-3.42
-2.00
0.24
2.61
4.53
5.68
6.15
6.22
6.13
5.96
5.57
4.76
3.51
2.00
0.54
-0.57
-1.17
-1.34
-1.30
-1.20
-1.06
-0.71
0.02
1.24
2.79
4.41
5.81
6.89
7.73
8.54
9.55
10.81
12.19
13.37
13.98
13.67
12.25
9.76
6.49
3.03
0.12
-1.54
-1.49
0.28
3.37
7.15
11.00
14.44
17.24
19.29
20.57
21.04
20.75
19.84
18.54
17.13
15.84
14.81
14.05
13.57
13.30
13.11
12.83
12.30
11.49
10.52
9.59
8.82
8.16
7.43
6.38
4.92
3.19
1.43
-0.12
-1.38
-2.48
-3.64
-5.00
-6.68
-8.69
-11.06
-13.77
-16.65
-19.26
-20.93
-20.91
-18.72
-14.44
-8.77
-2.74
2.59
6.62
9.25
10.82
11.69
12.02
11.72
10.62
8.77
6.52
4.52
3.39
3.45
4.52
6.03
7.30
7.87
7.69
7.04
6.33
5.86
5.66
5.53
5.21
4.57
3.70
2.84
2.30
2.40
3.45
5.80
9.88
16.14
24.77
35.45
47.31
59.06
69.38
77.44
83.05
86.74
89.27
91.21
92.56
92.74
90.86
86.15
78.20
67.10
53.27
37.30
19.87
1.87
-15.60
-31.26
-43.86
-52.52
-56.94
-57.51
-55.11
-50.85
-45.83
-40.86
-36.49
-32.92
-30.14
-27.95
-26.07
-24.24
-22.40
-20.64
-19.31
-18.80
-19.41
-21.19
-23.89
-26.97
-29.78
-31.76
-32.61
-32.34
-31.32
-30.05
-28.99
-28.32
-27.90
-27.33
-26.25
-24.48
-22.22
-19.87
-17.80
-16.05
-14.25
-11.79
-8.15
-3.17
2.89
9.59
16.50
23.37
30.02
36.17
41.28
44.77
46.25
45.82
44.04
41.61
39.05
36.35
33.13
28.97
23.75
17.81
11.80
6.29
1.47
-2.80
-6.88
-11.07
-15.42
-19.81
-24.03
-27.87
-31.14
-33.61
-34.95
-34.85
-33.11
-29.75
-25.00
-19.26
-12.96
-6.58
-0.64
4.42
8.27
10.93
12.86
14.83
17.65
21.83
27.34
33.58
39.61
44.41
47.31
48.00
46.62
43.49
38.99
33.33
26.61
18.94
10.65
2.45
-4.71
-9.93
-12.66
-12.87
-11.10
-8.15
-4.87
-2.03
-0.34
-0.45
-2.84
-7.53
-13.89
-20.67
-26.28
-29.41
-29.55
-27.15
-23.37
-19.58
-16.77
-15.29
-14.90
-15.09
-15.47
-15.98
-16.82
-18.28
-20.47
-23.14
-25.78
-27.73
-28.43
-27.59
-25.25
-21.69
-17.20
-11.96
-5.97
0.84
8.43
16.46
24.38
31.54
37.48
42.01
45.22
47.21
47.90
46.95
43.88
38.42
30.72
21.45
11.60
2.17
-6.11
-12.88
-18.10
-21.89
-24.37
-25.61
-25.71
-24.86
-23.38
-21.71
-20.18
-18.96
-17.83
-16.27
-13.70
-9.80
-4.95
-0.22
2.86
3.05
0.10
-4.92
-9.86
-12.44
-11.14
-5.80
2.45
11.84
20.69
27.89
33.11
36.48
38.43
39.47
40.03
40.39
40.60
40.49
39.86
38.66
37.19
36.07
35.95
37.21
39.73
42.98
46.23
48.81
50.25
50.49
49.77
48.65
47.86
48.12
49.88
53.27
57.96
63.31
68.32
71.87
72.84
70.41
64.43
55.52
45.00
34.54
25.47
18.25
12.24
5.96
-2.18
-13.26
-27.29
-43.34
-59.97
-75.74
-89.67
-101.37
-110.86
-118.38
-124.19
-128.50
-131.63
-133.98
-136.06
-138.17
-140.34
-142.05
-142.46
-140.67
-136.18
-129.10
-120.21
-110.55
-101.03
-92.03
-83.31
-74.26
-64.30
-53.23
-41.37
-29.39
-17.99
-7.62
1.67
10.22
18.49
26.91
35.50
43.81
50.92
55.67
57.07
54.87
49.94
44.26
40.41
40.77
46.52
57.22
70.81
84.18
94.13
98.24
95.44
86.18
72.26
56.37
41.52
30.29
24.16
23.09
25.59
29.28
31.81
31.66
28.58
23.36
17.31
11.60
6.93
3.30
0.26
-2.92
-6.89
-12.06
-18.40
-25.47
-32.55
-39.02
-44.75
-50.16
-55.95
-62.57
-69.92
-77.31
-83.92
-89.35
-93.78
-97.73
-101.46
-104.51
-105.81
-104.38
-100.04
-93.83
-87.65
-83.30
-81.63
-82.12
-83.31
-83.73
-82.53
-79.73
-75.79
-71.06
-65.59
-59.47
-53.29
-48.35
-46.16
-47.51
-51.93
-57.94
-64.00
-69.62
-75.71
-83.70
-94.25
-106.22
-116.85
-123.07
-122.99
-116.55
-105.09
-90.05
-72.06
-50.89
-26.22
1.46
30.64
59.31
85.74
108.93
128.54
144.57
157.18
166.80
174.24
180.37
185.63
189.60
191.28
190.11
187.05
184.86
187.03
195.77
210.47
227.42
241.38
247.89
245.01
233.55
215.93
194.57
171.09
146.27
120.63
94.85
69.70
45.79
23.50
3.26
-14.09
-27.48
-36.15
-40.39
-41.71
-42.17
-43.15
-44.58
-45.03
-42.77
-37.16
-29.17
-21.03
-14.99
-12.20
-12.33
-14.09
-16.11
-17.76
-19.22
-21.25
-24.52
-29.21
-34.87
-40.61
-45.55
-49.11
-51.26
-52.38
-52.88
-52.98
-52.46
-50.79
-47.45
-42.39
-36.21
-30.08
-25.29
-22.79
-22.97
-25.55
-29.87
-35.08
-40.38
-45.30
-49.68
-53.63
-57.27
-60.44
-62.62
-63.05
-61.01
-56.46
-50.36
-44.43
-40.49
-39.65
-41.73
-45.40
-48.86
-50.22
-48.60
-44.42
-39.05
-34.20
-31.18
-30.55
-32.10
-35.01
-37.45
-37.77
-35.01
-29.13
-20.73
-10.63
0.39
11.56
22.14
32.61
43.40
54.54
65.70
76.60
87.43
98.80
111.30
125.22
141.92
161.84
184.02
206.05
225.14
239.27
247.80
251.28
241.27
213.37
168.83
114.90
60.92
13.92
-22.65
-48.17
-63.88
-72.16
-74.42
-72.31
-67.67
-62.13
-56.55
-50.26
-41.75
-29.77
-14.21
4.66
25.17
44.53
59.83
69.06
71.77
68.63
60.51
47.90
31.50
12.59
-7.46
-27.26
-45.48
-61.06
-73.62
-83.58
-92.02
-99.73
-107.17
-114.42
-121.35
-127.76
-133.52
-138.62
-143.16
-147.20
-150.51
-152.69
-153.54
-153.11
-151.76
-150.04
-148.38
-147.00
-145.66
-143.63
-139.89
-133.44
-123.69
-110.62
-94.85
-77.32
-58.99
-40.58
-22.60
-5.58
9.75
22.41
31.37
35.95
36.13
32.63
26.83
20.32
14.56
10.47
8.37
8.02
8.91
10.50
12.49
14.87
17.88
21.74
26.37
31.19
35.18
37.28
36.92
34.34
30.64
27.29
25.40
25.11
25.49
25.10
22.76
18.22
12.31
6.43
1.92
-0.49
-0.74
0.81
3.75
7.78
12.65
18.07
23.54
28.40
32.01
33.94
34.00
32.29
29.12
24.89
20.09
15.30
11.15
8.32
7.49
9.20
13.66
20.65
29.45
38.99
48.08
55.61
60.77
63.06
62.24
58.36
51.78
43.15
33.28
22.97
12.74
2.64
-7.74
-19.00
-31.68
-45.86
-60.91
-75.37
-87.11
-93.74
-93.31
-85.07
-69.97
-50.49
-29.84
-10.90
4.77
17.07
26.95
35.46
43.12
49.66
54.45
57.03
57.48
56.36
54.34
51.81
48.74
44.85
40.01
34.53
29.12
24.63
21.51
19.55
17.86
15.30
11.02
4.92
-2.35
-9.62
-15.68
-19.58
-20.66
-18.52
-12.95
-4.15
7.26
20.24
33.62
46.53
58.51
69.25
78.11
83.84
84.76
79.58
68.28
52.56
35.35
19.70
7.42
-1.54
-8.82
-16.58
-26.33
-38.18
-50.90
-62.51
-71.07
-75.19
-74.36
-68.88
-59.75
-48.53
-36.99
-26.70
-18.62
-12.83
-8.67
-5.07
-1.17
3.30
7.89
11.85
14.56
15.92
16.49
17.15
18.67
21.36
24.86
28.40
31.16
32.68
33.03
32.64
32.02
31.41
30.69
29.52
27.70
25.39
23.17
21.90
22.32
24.79
29.17
34.75
40.37
44.58
45.79
42.70
34.62
21.91
6.02
-10.78
-26.01
-37.82
-45.48
-49.48
-51.08
-51.66
-52.15
-52.69
-52.80
-51.76
-49.08
-44.70
-39.04
-32.72
-26.22
-19.69
-12.99
-6.03
0.93
7.16
11.74
13.99
13.93
12.31
10.30
8.90
8.58
9.14
10.06
10.89
11.55
12.33
13.58
15.52
17.98
20.46
22.32
22.95
21.97
19.29
15.09
9.75
3.74
-2.40
-8.09
-12.67
-15.47
-15.87
-13.58
-8.72
-1.94
5.80
13.45
20.24
25.87
30.44
34.25
37.45
39.83
40.77
39.50
35.42
28.50
19.45
9.52
0.24
-7.21
-12.32
-15.32
-16.95
-18.05
-19.19
-20.54
-21.93
-23.18
-24.34
-25.67
-27.43
-29.56
-31.57
-32.73
-32.52
-31.00
-28.95
-27.54
-27.69
-29.57
-32.32
-34.38
-34.12
-30.51
-23.50
-13.90
-3.06
7.74
17.62
26.17
33.33
39.15
43.59
46.45
47.51
46.73
44.40
41.11
37.66
34.73
32.69
31.50
30.76
30.05
29.10
27.93
26.80
25.99
25.70
25.98
26.80
28.07
29.55
30.65
30.40
27.68
21.67
12.44
1.04
-10.76
-21.16
-29.14
-34.81
-39.26
-43.77
-49.07
-54.87
-60.05
-63.27
-63.63
-61.03
-56.22
-50.28
-44.25
-38.66
-33.45
-28.11
-22.12
-15.31
-8.08
-1.36
3.85
7.00
8.36
9.01
10.33
13.35
18.14
23.78
28.97
32.65
34.60
35.34
35.72
36.21
36.60
36.18
34.12
30.04
24.16
17.16
9.90
3.02
-3.21
-8.81
-13.88
-18.48
-22.55
-26.02
-28.88
-31.11
-32.71
-33.57
-33.42
-31.98
-29.00
-24.42
-18.44
-11.47
-4.08
3.02
9.07
13.32
15.22
14.57
11.65
7.21
2.17
-2.65
-6.74
-9.94
-12.25
-13.69
-14.23
-13.84
-12.74
-11.32
-10.13
-9.51
-9.39
-9.39
-8.92
-7.51
-4.89
-1.01
4.16
10.57
17.92
25.45
31.90
35.90
36.56
34.04
29.61
25.08
22.04
21.08
21.79
23.12
24.18
24.66
24.91
25.54
26.92
28.92
30.90
32.14
32.11
30.70
28.14
24.80
21.06
17.16
13.29
9.58
6.22
3.41
1.40
0.47
0.84
2.54
5.23
8.19
10.45
11.11
9.78
6.72
2.70
-1.48
-5.37
-9.15
-13.34
-18.39
-24.20
-30.13
-35.22
-38.81
-40.82
-41.82
-42.65
-43.92
-45.70
-47.50
-48.52
-48.08
-45.88
-42.18
-37.52
-32.60
-27.88
-23.58
-19.60
-15.70
-11.66
-7.44
-3.27
0.35
2.82
3.66
2.76
0.53
-2.21
-4.53
-5.76
-5.68
-4.52
-2.64
-0.39
2.01
4.42
6.65
8.41
9.40
9.44
8.58
7.07
5.24
3.36
1.62
0.07
-1.31
-2.55
-3.65
-4.59
-5.24
-5.38
-4.69
-2.91
0.05
3.93
8.19
12.15
15.23
17.17
18.07
18.30
18.21
17.87
17.03
15.19
11.94
7.25
1.56
-4.33
-9.64
-13.83
-16.90
-19.14
-20.96
-22.63
-24.05
-25.01
-25.30
-24.98
-24.39
-23.95
-23.87
-23.82
-22.98
-20.49
-15.89
-9.69
-3.38
1.11
2.22
-0.38
-5.62
-11.38
-15.49
-16.59
-14.53
-10.20
-4.92
0.25
4.70
8.26
10.86
12.34
12.48
11.23
8.85
5.94
3.12
0.82
-0.94
-2.41
-3.84
-5.28
-6.44
-6.89
-6.23
-4.34
-1.41
2.16
5.94
9.56
12.76
15.32
17.18
18.42
19.33
20.25
21.35
22.36
22.62
21.32
17.93
12.60
6.13
-0.32
-5.76
-9.75
-12.42
-14.24
-15.59
-16.52
-16.82
-16.32
-15.07
-13.51
-12.18
-11.53
-11.68
-12.37
-13.09
-13.28
-12.46
-10.42
-7.36
-3.90
-0.89
0.79
0.73
-0.88
-3.19
-5.14
-5.87
-5.09
-3.11
-0.61
1.75
3.57
4.74
5.33
5.36
4.81
3.65
2.00
0.13
-1.52
-2.51
-2.62
-1.93
-0.77
0.37
1.19
1.72
2.30
3.43
5.55
8.85
13.28
18.52
24.05
29.19
33.17
35.36
35.51
33.91
31.31
28.54
26.06
23.67
20.66
16.31
10.46
3.76
-2.65
-7.64
-10.74
-12.30
-13.25
-14.46
-16.35
-18.67
-20.81
-22.16
-22.48
-21.92
-20.88
-19.65
-18.27
-16.58
-14.39
-11.66
-8.46
-4.88
-0.95
3.34
7.85
12.13
15.47
17.10
16.61
14.20
10.57
6.61
2.97
-0.25
-3.36
-6.74
-10.52
-14.40
-17.77
-20.10
-21.23
-21.50
-21.65
-22.33
-23.80
-25.73
-27.37
-27.91
-27.07
-25.17
-23.11
-21.84
-21.89
-23.05
-24.55
-25.38
-24.65
-21.74
-16.20
-7.70
3.80
17.67
32.42
45.88
55.98
61.67
63.41
62.93
62.12
61.96
61.82
59.86
54.12
43.74
29.63
14.11
-0.13
-11.15
-18.44
-22.83
-25.84
-28.80
-32.36
-36.37
-40.19
-43.29
-45.55
-47.16
-48.24
-48.41
-46.73
-42.19
-34.42
-24.35
-14.06
-5.99
-1.77
-1.42
-3.33
-5.09
-4.73
-1.49
3.97
10.22
15.87
20.10
22.77
24.09
24.22
23.18
20.97
17.74
13.91
10.05
6.60
3.66
1.00
-1.72
-4.67
-7.65
-10.04
-11.08
-10.10
-6.90
-1.89
3.99
9.55
13.64
15.73
16.04
15.49
15.27
16.19
18.22
20.43
21.46
20.11
15.95
9.40
1.46
-6.73
-14.22
-20.35
-24.60
-26.62
-26.31
-23.99
-20.48
-16.89
-14.27
-13.31
-14.11
-16.36
-19.53
-23.07
-26.46
-29.11
-30.38
-29.80
-27.30
-23.49
-19.39
-15.97
-13.65
-11.94
-9.81
-6.28
-0.97
5.66
12.54
18.67
23.57
27.41
30.71
33.79
36.50
38.26
38.45
36.81
33.65
29.78
26.11
23.36
21.67
20.70
19.89
18.69
16.80
14.20
11.13
7.94
5.12
3.27
3.06
4.98
9.10
14.94
21.60
28.17
34.01
38.84
42.48
44.52
44.18
40.63
33.51
23.38
11.70
0.34
-9.16
-16.22
-21.23
-25.17
-29.00
-33.11
-37.37
-41.37
-44.73
-47.39
-49.54
-51.40
-53.06
-54.35
-54.93
-54.42
-52.57
-49.31
-44.86
-39.68
-34.35
-29.36
-24.88
-20.53
-15.54
-9.05
-0.65
9.41
20.19
30.46
39.14
45.70
50.15
52.79
53.94
53.80
52.49
50.20
47.26
44.07
40.87
37.63
34.01
29.60
24.09
17.51
10.26
3.08
-3.07
-7.24
-8.72
-7.27
-3.23
2.57
9.03
15.21
20.66
25.38
29.65
33.43
36.15
36.70
33.86
26.95
16.25
3.03
-10.97
-24.15
-35.53
-44.79
-52.02
-57.26
-60.34
-60.94
-58.96
-54.68
-48.96
-42.92
-37.62
-33.76
-31.54
-30.64
-30.22
-29.05
-25.87
-19.88
-11.30
-1.57
7.10
12.59
13.89
11.53
7.33
3.49
1.68
2.44
5.18
8.72
11.98
14.28
15.43
15.54
14.72
13.08
10.66
7.54
3.83
-0.27
-4.52
-8.72
-12.72
-16.38
-19.46
-21.60
-22.27
-20.94
-17.26
-11.19
-3.08
6.25
15.65
23.80
29.56
32.32
32.24
30.24
27.53
25.12
23.31
21.68
19.44
15.97
11.30
6.14
1.43
-2.10
-4.30
-5.59
-6.59
-7.76
-9.13
-10.45
-11.43
-11.96
-12.21
-12.54
-13.20
-14.21
-15.37
-16.32
-16.68
-16.14
-14.46
-11.68
-8.14
-4.64
-2.19
-1.58
-2.94
-5.49
-7.81
-8.41
-6.44
-2.08
3.62
9.29
13.90
17.06
18.98
20.12
20.81
21.04
20.64
19.39
17.28
14.58
11.67
8.86
6.23
3.70
1.28
-0.86
-2.31
-2.72
-1.98
-0.46
1.25
2.65
3.62
4.56
6.07
8.45
11.49
14.53
16.80
17.80
17.41
15.66
12.61
8.15
2.29
-4.64
-11.75
-17.87
-21.92
-23.42
-22.66
-20.49
-17.97
-15.88
-14.58
-14.07
-14.17
-14.67
-15.40
-16.18
-16.85
-17.22
-17.21
-16.90
-16.50
-16.22
-16.01
-15.48
-13.98
-10.91
-6.17
-0.38
5.25
9.33
10.90
9.84
6.89
3.26
0.02
-2.31
-3.83
-4.96
-6.02
-6.97
-7.45
-7.09
-5.86
-4.11
-2.46
-1.43
-1.17
-1.35
-1.38
-0.73
0.77
2.93
5.34
7.61
9.51
11.00
12.15
13.12
14.11
15.46
17.54
20.57
24.42
28.52
31.93
33.71
33.32
30.70
26.28
20.60
14.09
7.03
-0.30
-7.47
-13.86
-18.81
-21.90
-23.08
-22.72
-21.45
-19.98
-18.91
-18.67
-19.46
-21.24
-23.70
-26.28
-28.31
-29.22
-28.67
-26.58
-22.96
-17.80
-10.96
-2.36
7.78
18.68
29.08
37.49
42.70
44.20
42.32
38.06
32.68
27.21
22.24
17.89
14.08
10.72
7.88
5.68
4.24
3.48
3.09
2.66
1.83
0.39
-1.58
-3.88
-6.18
-8.26
-9.96
-11.29
-12.25
-12.84
-13.08
-12.98
-12.55
-11.84
-10.82
-9.45
-7.62
-5.20
-2.17
1.39
5.23
9.03
12.46
15.19
16.92
17.35
16.24
13.39
8.92
3.26
-2.82
-8.48
-13.05
-16.29
-18.42
-19.90
-21.15
-22.25
-22.95
-22.90
-21.95
-20.35
-18.66
-17.34
-16.52
-15.81
-14.62
-12.57
-9.67
-6.33
-2.96
0.23
3.27
6.15
8.53
9.74
9.03
6.15
1.57
-3.59
-8.06
-11.06
-12.51
-12.87
-12.68
-12.16
-11.08
-9.04
-5.80
-1.48
3.41
8.28
12.63
16.20
18.91
20.72
21.47
20.99
19.25
16.51
13.36
10.55
8.72
8.22
9.05
11.04
13.93
17.37
20.95
24.08
26.22
27.02
26.58
25.38
24.05
22.94
21.85
20.12
16.94
11.83
4.88
-3.35
-12.04
-20.42
-27.91
-34.10
-38.59
-41.09
-41.39
-39.56
-35.92
-30.98
-25.32
-19.48
-13.94
-9.13
-5.35
-2.70
-0.94
0.47
2.14
4.46
7.45
10.63
13.40
15.23
16.00
15.95
15.51
14.93
14.18
13.00
11.08
8.32
4.96
1.54
-1.33
-3.13
-3.67
-3.10
-1.85
-0.46
0.60
0.96
0.37
-1.40
-4.51
-9.00
-14.51
-20.14
-24.47
-25.83
-22.95
-15.60
-4.87
7.05
17.75
25.44
29.60
30.96
30.91
30.77
31.14
31.79
31.92
30.68
27.57
22.64
16.34
9.23
1.80
-5.62
-12.82
-19.56
-25.55
-30.45
-33.92
-35.80
-36.13
-35.20
-33.45
-31.24
-28.74
-25.74
-21.78
-16.41
-9.54
-1.70
6.00
12.32
16.32
17.81
17.39
15.97
14.26
12.42
10.13
7.07
3.39
-0.16
-2.57
-3.17
-2.01
0.08
1.99
2.84
2.40
1.05
-0.55
-1.95
-3.09
-4.22
-5.61
-7.23
-8.73
-9.58
-9.33
-7.79
-5.00
-1.09
3.82
9.62
16.05
22.57
28.41
32.80
35.33
36.06
35.44
33.98
31.99
29.50
26.41
22.80
19.00
15.43
12.27
9.29
5.79
0.98
-5.55
-13.62
-22.41
-30.74
-37.43
-41.65
-43.10
-41.96
-38.76
-34.16
-28.79
-23.10
-17.40
-11.85
-6.49
-1.29
3.77
8.62
13.09
16.84
19.55
21.08
21.59
21.47
21.19
20.96
20.69
20.11
19.02
17.47
15.82
14.43
13.42
12.52
11.20
9.00
5.91
2.37
-0.75
-2.47
-1.85
1.65
7.89
15.92
24.09
30.48
33.56
32.68
28.34
21.85
14.84
8.62
3.96
1.01
-0.50
-1.10
-1.41
-2.07
-3.61
-6.20
-9.58
-13.09
-15.98
-17.68
-18.10
-17.46
-16.16
-14.57
-12.84
-11.01
-9.09
-7.19
-5.49
-4.24
-3.51
-3.26
-3.33
-3.57
-4.06
-5.14
-7.35
-11.17
-16.62
-23.16
-29.72
-35.01
-38.02
-38.36
-36.29
-32.65
-28.50
-24.72
-21.79
-19.81
-18.49
-17.36
-15.96
-13.94
-11.18
-7.86
-4.40
-1.29
1.10
2.69
3.76
4.76
6.11
7.96
10.07
11.97
13.11
13.13
11.97
9.83
7.07
4.03
1.00
-1.87
-4.49
-6.86
-9.12
-11.40
-13.80
-16.12
-17.88
-18.40
-17.11
-13.83
-8.94
-3.26
2.27
6.94
10.50
13.14
15.20
16.98
18.52
19.62
20.01
19.50
18.02
15.60
12.39
8.57
4.43
0.36
-3.19
-5.77
-7.06
-7.03
-5.93
-4.30
-2.78
-1.94
-2.17
-3.51
-5.70
-8.21
-10.37
-11.61
-11.68
-10.75
-9.41
-8.37
-8.15
-8.81
-9.90
-10.74
-10.73
-9.62
-7.60
-5.01
-2.15
0.95
4.45
8.51
12.97
17.34
20.83
22.67
22.38
19.95
15.84
10.93
6.17
2.38
-0.01
-1.11
-1.42
-1.53
-1.74
-1.75
-0.68
2.49
8.33
16.48
25.53
33.50
38.63
40.19
38.74
35.90
33.58
33.28
35.54
39.88
44.86
48.37
47.81
40.60
25.19
2.14
-25.27
-51.53
-70.69
-78.74
-75.33
-63.72
-49.15
-36.24
-27.15
-21.32
-16.66
-11.26
-4.32
4.02
13.41
23.82
35.19
46.63
56.06
60.79
58.95
50.85
39.14
27.71
19.74
16.12
15.27
14.30
10.78
3.94
-5.36
-15.52
-25.31
-34.34
-42.78
-50.55
-56.98
-60.82
-61.05
-57.55
-51.22
-43.52
-35.80
-28.74
-22.16
-15.20
-6.46
5.62
22.25
43.55
68.00
92.40
112.89
126.47
132.30
131.86
127.79
122.20
115.35
105.79
91.59
71.99
48.31
23.61
1.43
-15.69
-26.90
-32.95
-35.54
-36.47
-37.18
-38.52
-40.67
-43.22
-45.46
-46.78
-47.00
-46.38
-45.14
-43.09
-39.62
-34.22
-27.25
-20.20
-15.26
-14.19
-17.15
-22.46
-27.32
-29.26
-27.33
-22.44
-16.49
-11.27
-7.60
-5.33
-3.96
-3.31
-3.64
-5.34
-8.36
-11.99
-15.15
-16.81
-16.60
-14.85
-12.42
-10.12
-8.51
-7.56
-6.74
-5.37
-2.79
1.39
7.27
14.72
23.34
32.35
40.63
46.82
49.66
48.45
43.33
35.33
26.02
16.95
9.19
3.11
-1.48
-5.07
-8.05
-10.75
-13.30
-15.75
-17.90
-19.31
-19.37
-17.65
-14.17
-9.35
-3.98
1.11
5.29
7.95
8.53
6.54
1.80
-5.28
-13.60
-21.89
-29.22
-35.55
-41.66
-48.56
-56.70
-65.51
-73.46
-78.72
-80.00
-77.09
-70.88
-63.04
-55.29
-48.95
-44.58
-42.00
-40.48
-39.08
-37.14
-34.47
-31.42
-28.57
-26.23
-24.15
-21.56
-17.76
-12.67
-6.99
-1.57
3.44
9.08
17.22
29.19
44.50
60.36
72.65
78.03
75.76
68.32
60.11
55.07
54.69
57.47
60.05
59.30
53.91
44.75
34.09
24.17
16.14
9.80
4.22
-1.33
-6.79
-11.27
-13.78
-13.85
-11.94
-9.33
-7.58
-7.88
-10.46
-14.41
-18.02
-19.52
-18.00
-13.88
-8.73
-4.58
-2.81
-3.54
-5.57
-7.13
-6.78
-4.08
0.44
5.79
11.08
15.82
19.74
22.55
23.73
22.80
19.59
14.52
8.49
2.70
-1.82
-4.40
-4.94
-3.79
-1.57
1.01
3.30
4.97
6.05
6.97
8.31
10.52
13.56
16.76
18.97
19.03
16.28
10.95
4.17
-2.52
-7.75
-10.80
-11.82
-11.57
-11.04
-11.04
-11.91
-13.62
-15.90
-18.44
-21.05
-23.69
-26.29
-28.64
-30.34
-30.85
-29.81
-27.25
-23.70
-20.09
-17.39
-16.35
-17.12
-19.12
-21.03
-21.03
-17.54
-9.99
0.62
11.73
20.18
23.51
21.05
14.10
5.31
-2.53
-7.35
-8.30
-5.62
-0.43
5.61
10.58
12.69
10.90
5.41
-2.34
-10.25
-16.46
-20.08
-21.24
-20.62
-18.84
-16.07
-12.30
-7.78
-3.25
0.26
2.12
2.55
2.72
4.28
8.45
15.38
23.89
31.99
37.80
40.41
40.13
38.15
35.75
33.60
31.66
29.53
26.91
23.68
19.47
13.34
4.01
-9.29
-25.76
-42.72
-56.38
-63.54
-63.29
-57.41
-49.53
-43.16
-40.10
-39.87
-40.56
-40.27
-38.28
-35.19
-32.03
-29.20
-25.88
-20.49
-11.77
0.07
12.98
23.69
29.27
28.69
23.30
16.31
11.13
9.86
12.56
17.66
23.19
27.70
30.64
32.04
31.98
30.37
27.22
22.90
18.22
14.17
11.39
9.82
8.85
7.68
5.76
3.04
-0.20
-3.59
-6.70
-9.01
-9.77
-8.06
-3.16
5.00
15.55
26.85
36.93
44.20
47.91
48.22
45.94
42.08
37.50
32.78
28.22
23.89
19.64
15.14
9.92
3.52
-4.21
-13.08
-22.38
-31.08
-37.94
-41.79
-41.92
-38.39
-32.29
-25.52
-20.28
-18.18
-19.52
-23.11
-26.66
-27.74
-24.83
-17.85
-8.18
1.95
10.32
15.40
16.66
14.42
9.43
2.58
-5.14
-12.57
-18.33
-20.91
-19.32
-13.56
-4.79
4.90
13.37
19.17
21.90
22.03
20.31
17.32
13.37
8.81
4.28
0.65
-1.30
-1.41
-0.06
2.13
4.82
8.29
13.16
19.67
27.25
34.52
39.95
42.71
42.96
41.57
39.29
36.15
31.33
23.87
13.41
0.72
-12.57
-24.65
-34.31
-41.23
-45.75
-48.40
-49.56
-49.40
-48.06
-45.77
-42.87
-39.59
-35.95
-31.85
-27.15
-21.83
-16.02
-9.87
-3.55
2.58
7.92
11.61
12.82
11.30
7.68
3.37
0.02
-1.23
-0.25
2.17
4.86
7.02
8.53
9.93
11.90
14.78
18.23
21.41
23.37
23.40
21.51
18.28
14.65
11.41
8.76
6.26
3.14
-1.17
-6.62
-12.37
-17.09
-19.37
-18.14
-12.88
-3.82
8.04
20.97
32.78
41.48
45.84
45.89
42.79
38.27
33.71
29.59
25.50
20.55
14.13
6.29
-2.30
-10.70
-18.15
-24.26
-28.96
-32.33
-34.52
-35.66
-35.96
-35.67
-34.98
-34.01
-32.75
-31.27
-29.73
-28.39
-27.44
-26.86
-26.30
-25.41
-24.14
-22.92
-22.47
-23.27
-25.13
-27.02
-27.59
-25.85
-21.72
-16.09
-10.22
-5.06
-0.80
3.06
7.21
11.99
17.06
21.56
24.43
25.02
23.24
19.60
14.97
10.27
6.27
3.47
2.17
2.44
4.15
6.96
10.44
14.18
18.02
22.06
26.58
31.72
37.17
42.13
45.53
46.47
44.64
40.49
34.96
29.07
23.56
18.71
14.49
10.81
7.60
4.78
2.04
-1.15
-5.46
-11.32
-18.60
-26.43
-33.53
-38.67
-41.08
-40.71
-38.10
-34.07
-29.45
-24.91
-20.85
-17.28
-13.87
-10.10
-5.61
-0.49
4.61
8.77
11.28
12.09
11.78
11.20
10.97
11.08
11.14
10.77
10.04
9.49
9.77
11.19
13.41
15.61
16.86
16.54
14.61
11.54
8.08
5.01
2.93
2.22
2.96
4.95
7.72
10.62
13.07
14.74
15.77
16.72
18.34
21.16
25.20
29.77
33.69
35.73
35.10
31.78
26.53
20.52
14.85
10.04
5.90
1.67
-3.49
-10.06
-17.89
-26.33
-34.56
-41.95
-48.29
-53.63
-58.15
-61.90
-64.83
-66.85
-67.99
-68.39
-68.11
-66.91
-64.12
-58.88
-50.62
-39.55
-26.83
-14.24
-3.58
4.08
8.65
10.87
11.78
12.21
12.60
13.02
13.45
13.89
14.36
14.80
15.03
14.88
14.37
13.77
13.39
13.42
13.73
13.96
13.76
13.04
12.05
11.20
10.86
11.27
12.59
15.16
19.37
25.39
32.73
40.10
45.55
47.27
44.32
37.11
27.31
17.12
8.50
2.52
-0.77
-2.04
-2.35
-2.73
-4.05
-6.86
-11.39
-17.40
-24.26
-31.05
-36.67
-40.00
-40.07
-36.29
-28.62
-17.79
-5.22
7.27
18.05
26.19
31.62
35.03
37.37
39.35
41.25
43.12
44.97
47.03
49.71
53.35
57.90
62.76
67.10
70.39
72.82
75.27
78.78
83.83
89.90
95.68
99.61
100.63
98.46
93.43
85.86
75.62
62.20
45.20
24.97
2.89
-18.99
-38.66
-54.91
-67.51
-76.97
-83.96
-88.90
-91.79
-92.39
-90.53
-86.35
-80.28
-72.91
-64.83
-56.56
-48.59
-41.43
-35.51
-31.09
-28.14
-26.33
-25.25
-24.61
-24.31
-24.53
-25.55
-27.73
-31.35
-36.53
-43.06
-50.29
-57.14
-62.44
-65.37
-65.73
-63.99
-61.08
-57.99
-55.62
-54.61
-55.20
-57.15
-59.67
-61.48
-61.25
-58.08
-51.92
-43.47
-33.72
-23.37
-12.51
-0.89
11.60
24.40
36.32
46.12
53.00
56.94
58.42
57.89
55.32
50.23
41.91
29.97
14.62
-3.28
-22.35
-40.88
-56.99
-68.82
-74.84
-74.38
-67.93
-57.07
-43.84
-29.89
-15.88
-1.58
13.43
28.88
43.43
55.16
62.58
65.61
65.72
65.11
65.55
67.41
69.71
70.88
69.71
65.91
59.93
52.36
43.40
32.76
20.12
5.71
-9.38
-23.33
-34.24
-40.69
-42.36
-40.08
-35.65
-31.29
-29.03
-30.02
-34.00
-39.34
-43.58
-44.51
-41.14
-34.11
-25.30
-16.68
-9.21
-2.38
5.20
14.66
25.85
37.27
46.78
52.82
55.18
54.89
53.38
51.48
49.03
45.11
38.89
30.33
20.35
10.53
2.40
-3.11
-5.94
-6.73
-6.49
-6.12
-6.14
-6.48
-6.66
-6.02
-4.15
-1.22
1.94
4.03
3.79
0.57
-5.21
-12.04
-17.85
-20.72
-19.63
-14.81
-7.65
-0.10
6.07
9.75
10.69
9.23
5.92
1.31
-4.10
-9.68
-14.64
-18.16
-19.69
-19.23
-17.40
-15.10
-13.09
-11.43
-9.49
-6.21
-0.74
6.92
15.68
23.73
29.19
30.97
29.14
24.89
19.90
15.53
12.37
10.12
8.09
5.65
2.66
-0.54
-3.45
-5.72
-7.46
-9.12
-11.20
-13.94
-17.06
-19.87
-21.63
-21.91
-20.89
-19.28
-17.96
-17.49
-17.83
-18.31
-18.04
-16.27
-12.70
-7.55
-1.42
4.82
10.13
13.44
13.90
11.27
6.13
-0.19
-6.02
-9.98
-11.52
-11.05
-9.63
-8.41
-8.21
-9.26
-11.43
-14.40
-17.93
-21.76
-25.58
-28.86
-30.89
-30.93
-28.42
-23.18
-15.48
-6.05
4.08
13.77
22.01
28.11
31.87
33.67
34.30
34.78
35.94
38.10
40.97
43.74
45.48
45.60
44.15
41.85
39.88
39.34
40.86
44.41
49.27
54.45
58.93
62.01
63.38
63.03
61.10
57.70
52.86
46.51
38.61
29.23
18.54
6.96
-4.96
-16.60
-27.32
-36.56
-43.94
-49.17
-52.12
-52.75
-51.08
-47.28
-41.59
-34.39
-26.14
-17.49
-9.20
-2.09
3.10
5.92
6.37
4.84
1.92
-1.86
-6.18
-10.82
-15.49
-19.73
-22.95
-24.85
-25.60
-25.93
-26.75
-28.64
-31.51
-34.63
-37.16
-38.60
-39.00
-38.82
-38.41
-37.75
-36.39
-33.83
-29.88
-24.84
-19.25
-13.62
-8.14
-2.73
2.69
7.97
12.74
16.63
19.53
21.77
23.84
26.10
28.43
30.21
30.57
28.69
24.13
16.94
7.79
-2.17
-11.38
-18.23
-21.61
-21.36
-18.48
-14.71
-11.70
-10.17
-9.49
-8.03
-3.94
4.05
16.17
31.79
49.68
68.33
85.99
100.77
110.82
114.84
112.54
104.80
93.30
79.87
65.88
52.01
38.38
24.95
11.93
-0.33
-11.43
-21.22
-29.88
-37.84
-45.26
-51.65
-55.93
-56.79
-53.56
-46.51
-36.94
-26.53
-16.56
-7.60
0.34
7.15
12.26
14.65
13.51
8.83
1.55
-6.90
-15.42
-23.67
-31.98
-40.71
-49.64
-57.88
-64.23
-67.94
-68.99
-68.18
-66.61
-65.17
-64.00
-62.41
-58.93
-51.74
-39.39
-21.42
0.85
24.43
45.31
59.77
65.71
63.39
55.15
44.23
33.37
23.82
15.37
7.13
-1.58
-10.66
-19.41
-27.06
-33.31
-38.40
-42.88
-47.11
-50.98
-53.98
-55.53
-55.33
-53.60
-51.01
-48.38
-46.37
-45.23
-44.69
-44.04
-42.34
-38.78
-33.14
-26.14
-19.24
-14.13
-11.87
-12.25
-13.77
-14.35
-12.38
-7.53
-0.85
5.96
11.44
15.10
17.41
19.14
20.76
22.19
22.99
22.90
22.17
21.50
21.59
22.64
24.23
25.52
25.79
24.77
22.71
20.21
17.85
16.09
15.38
16.16
18.84
23.42
29.18
34.61
37.97
37.98
34.48
28.51
21.64
15.24
9.73
4.63
-0.93
-7.55
-15.14
-22.99
-30.19
-36.00
-40.06
-42.39
-43.11
-42.44
-40.62
-37.93
-34.75
-31.38
-28.04
-24.84
-21.83
-19.01
-16.25
-13.21
-9.58
-5.28
-0.87
2.43
3.22
0.67
-4.69
-10.89
-15.11
-14.94
-9.41
0.57
12.62
23.99
32.57
37.42
38.71
37.20
33.75
29.08
23.65
17.85
12.09
6.79
2.37
-0.84
-2.74
-3.46
-3.29
-2.51
-1.19
1.02
4.77
10.79
19.40
30.31
42.59
55.09
66.91
77.66
87.54
96.97
106.19
115.04
122.87
128.83
132.04
131.89
128.12
120.89
110.81
98.98
86.77
75.41
65.52
56.50
46.63
33.60
15.44
-8.57
-37.41
-68.48
-98.32
-123.51
-141.40
-150.47
-150.57
-142.81
-129.52
-113.72
-98.41
-85.70
-76.09
-68.52
-61.11
-52.12
-40.83
-27.63
-13.72
-0.34
11.63
21.78
30.01
36.25
40.47
42.82
43.85
44.42
45.35
46.99
48.81
49.45
47.16
40.57
29.49
15.22
0.28
-12.16
-19.22
-18.96
-10.98
3.24
20.28
35.37
43.60
41.44
28.12
6.10
-19.70
-43.56
-60.95
-69.86
-71.10
-67.56
-62.82
-59.92
-60.51
-64.62
-70.96
-77.63
-82.89
-85.64
-85.70
-83.43
-79.25
-73.35
-65.69
-56.36
-45.97
-35.57
-26.37
-19.07
-13.49
-8.69
-3.69
1.86
7.21
10.96
11.84
9.61
5.38
1.06
-1.63
-2.10
-1.06
-0.04
-0.44
-2.82
-6.75
-11.19
-15.04
-17.45
-17.91
-16.11
-11.93
-5.56
2.39
10.94
18.98
25.65
30.67
34.30
37.18
39.95
43.08
46.88
51.56
57.19
63.48
69.55
73.84
74.58
70.46
61.42
48.89
35.35
23.40
14.73
9.64
7.16
5.72
3.92
0.90
-3.62
-9.53
-16.57
-24.24
-31.79
-38.34
-43.05
-45.51
-45.85
-44.62
-42.48
-39.94
-37.31
-34.77
-32.30
-29.62
-26.12
-21.04
-13.96
-5.36
3.21
9.60
12.08
10.26
5.46
0.11
-3.45
-4.01
-1.91
1.49
4.74
7.04
8.47
9.55
10.66
11.67
12.07
11.25
8.99
5.67
2.14
-0.46
-1.13
0.75
5.18
11.51
18.65
25.50
31.40
36.38
41.03
45.96
51.27
56.20
59.55
60.24
58.01
53.56
48.06
42.49
37.17
31.77
25.70
18.62
10.61
2.05
-6.72
-15.50
-24.08
-32.07
-38.74
-43.27
-45.21
-44.86
-43.28
-41.90
-41.84
-43.40
-46.03
-48.65
-50.29
-50.60
-49.81
-48.37
-46.64
-44.64
-42.24
-39.47
-36.57
-33.93
-31.72
-29.68
-27.25
-23.95
-19.76
-15.27
-11.33
-8.60
-7.17
-6.57
-6.20
-5.73
-5.26
-5.18
-5.83
-7.17
-8.75
-9.91
-10.04
-8.86
-6.44
-3.08
0.85
4.94
8.71
11.66
13.54
14.66
15.99
18.81
23.96
31.10
38.55
43.83
44.83
40.94
33.40
24.75
17.60
13.54
12.54
13.43
14.72
15.40
15.31
14.84
14.38
14.03
13.46
12.19
9.90
6.71
3.13
-0.20
-2.84
-4.73
-6.17
-7.71
-9.81
-12.61
-15.71
-18.21
-19.03
-17.50
-13.83
-9.29
-5.76
-4.79
-6.76
-10.52
-13.92
-14.91
-12.64
-7.94
-2.75
1.01
2.48
2.15
1.45
1.74
3.64
6.71
9.93
12.30
13.29
13.06
12.13
11.11
10.35
9.92
9.62
9.22
8.57
7.76
7.09
7.04
8.23
11.34
16.92
25.15
35.52
46.75
57.09
64.87
69.28
70.61
70.10
69.24
68.91
68.93
68.31
65.88
61.06
54.24
46.58
39.46
33.85
30.02
27.56
25.69
23.61
20.79
16.99
12.27
6.79
0.72
-5.91
-13.03
-20.42
-27.50
-33.46
-37.49
-39.22
-39.02
-37.87
-36.93
-36.92
-37.81
-38.85
-39.07
-37.85
-35.23
-31.86
-28.63
-26.24
-24.98
-24.71
-25.06
-25.57
-25.76
-25.20
-23.61
-20.91
-17.35
-13.52
-10.13
-7.68
-6.26
-5.42
-4.44
-2.63
0.36
4.46
9.23
14.14
18.77
22.81
26.05
28.25
29.04
28.09
25.13
20.18
13.54
5.74
-2.57
-10.76
-18.32
-24.87
-30.20
-34.22
-36.95
-38.53
-39.16
-39.07
-38.50
-37.69
-36.77
-35.79
-34.65
-33.11
-30.87
-27.69
-23.53
-18.59
-13.36
-8.55
-4.83
-2.66
-2.12
-2.81
-4.08
-5.20
-5.66
-5.32
-4.43
-3.42
-2.69
-2.38
-2.21
-1.67
-0.18
2.61
6.61
11.23
15.59
18.81
20.39
20.34
19.09
17.25
15.26
13.22
10.97
8.32
5.27
2.14
-0.57
-2.51
-3.57
-4.04
-4.28
-4.51
-4.56
-3.98
-2.27
0.77
4.89
9.39
13.37
16.01
16.81
15.66
12.78
8.57
3.52
-1.88
-7.05
-11.45
-14.52
-15.86
-15.49
-13.81
-11.60
-9.68
-8.68
-8.69
-9.39
-10.18
-10.51
-10.09
-8.93
-7.25
-5.28
-3.21
-1.12
0.92
2.84
4.55
6.01
7.24
8.25
9.00
9.40
9.38
8.92
8.09
7.00
5.80
4.54
3.28
2.03
0.83
-0.32
-1.43
-2.55
-3.71
-4.88
-5.93
-6.63
-6.80
-6.33
-5.28
-3.82
-2.13
-0.40
1.26
2.76
4.04
5.04
5.74
6.18
6.53
6.94
7.61
8.62
9.88
11.11
11.92
11.98
11.28
10.23
9.68
10.62
13.79
19.19
26.00
32.79
38.06
40.81
40.89
39.01
36.28
33.72
31.80
30.32
28.47
25.09
19.03
9.52
-3.54
-19.15
-35.24
-48.93
-57.38
-58.69
-52.66
-40.78
-25.58
-9.59
5.44
18.76
30.25
39.81
47.15
51.76
53.36
52.07
48.49
43.44
37.80
32.30
27.61
24.22
22.26
21.43
21.07
20.43
19.14
17.29
15.31
13.57
12.06
10.39
8.23
5.74
3.63
2.91
4.34
8.04
13.49
19.87
26.37
32.36
37.19
40.00
39.75
35.54
27.20
15.57
2.41
-10.23
-20.74
-28.55
-34.15
-38.64
-43.04
-47.92
-53.18
-58.34
-62.68
-65.57
-66.62
-65.72
-63.07
-59.15
-54.59
-49.93
-45.50
-41.38
-37.40
-33.42
-29.52
-26.01
-23.35
-21.97
-21.96
-23.09
-24.79
-26.42
-27.48
-27.71
-27.09
-25.69
-23.53
-20.55
-16.70
-12.19
-7.52
-3.38
-0.33
1.45
2.28
2.78
3.49
4.66
6.13
7.68
9.17
10.76
12.78
15.36
18.23
20.70
21.95
21.38
18.82
14.50
8.80
2.08
-5.43
-13.41
-21.24
-27.95
-32.42
-33.80
-31.95
-27.52
-21.69
-15.67
-10.23
-5.50
-1.22
2.87
6.69
9.79
11.57
11.67
10.26
8.02
5.85
4.54
4.40
5.20
6.30
6.97
6.59
4.98
2.40
-0.56
-3.16
-4.87
-5.52
-5.41
-5.13
-5.40
-6.66
-8.87
-11.43
-13.42
-13.98
-12.70
-9.85
-6.26
-3.00
-0.92
-0.40
-1.24
-2.87
-4.66
-6.07
-6.81
-6.82
-6.29
-5.61
-5.25
-5.72
-7.35
-10.23
-14.18
-18.83
-23.68
-28.18
-31.77
-33.98
-34.57
-33.61
-31.55
-29.08
-26.97
-25.64
-25.07
-24.74
-23.78
-21.43
-17.29
-11.63
-5.25
0.79
5.62
8.93
11.08
12.86
15.06
18.01
21.38
24.32
25.85
25.39
22.98
19.31
15.42
12.30
10.48
9.90
9.98
9.99
9.39
8.14
6.65
5.54
5.28
5.97
7.37
9.13
11.08
13.21
15.57
17.95
19.81
20.52
19.66
17.47
14.76
12.61
11.79
12.44
14.07
15.92
17.34
18.10
18.26
18.01
17.44
16.47
14.95
12.89
10.43
7.85
5.45
3.34
1.48
-0.29
-2.12
-4.06
-6.01
-7.75
-9.04
-9.76
-9.94
-9.78
-9.55
-9.47
-9.66
-10.16
-10.99
-12.27
-14.13
-16.69
-19.81
-23.01
-25.61
-26.82
-26.14
-23.50
-19.41
-14.71
-10.31
-6.86
-4.66
-3.66
-3.61
-4.20
-5.11
-6.08
-6.82
-7.17
-7.14
-6.91
-6.74
-6.81
-7.08
-7.21
-6.87
-5.92
-4.56
-3.29
-2.62
-2.79
-3.62
-4.74
-5.70
-6.41
-7.14
-8.42
-10.77
-14.37
-18.88
-23.34
-26.45
-26.97
-24.28
-18.59
-10.89
-2.45
5.70
13.07
19.64
25.52
30.62
34.58
36.94
37.55
36.60
34.65
32.20
29.44
26.28
22.51
18.08
13.28
8.55
4.23
0.51
-2.68
-5.56
-8.27
-10.88
-13.36
-15.69
-17.94
-20.24
-22.74
-25.54
-28.68
-32.07
-35.52
-38.67
-41.07
-42.28
-41.98
-40.06
-36.74
-32.43
-27.54
-22.34
-16.81
-10.72
-3.81
3.98
12.36
20.67
28.09
33.95
38.08
40.93
43.42
46.53
50.81
56.00
61.11
64.86
66.24
65.02
61.82
57.75
53.88
50.78
48.42
46.39
44.35
42.25
40.30
38.83
37.94
37.47
37.19
37.00
37.13
37.99
39.95
43.03
46.85
50.78
54.11
56.22
56.69
55.34
52.18
47.60
42.25
37.08
32.93
30.31
29.05
28.42
27.47
25.45
22.18
18.21
14.61
12.46
12.13
12.87
12.98
10.53
4.16
-6.15
-18.83
-31.00
-39.53
-42.45
-39.86
-33.78
-27.03
-22.03
-19.84
-19.79
-19.80
-17.47
-11.58
-2.76
6.96
15.05
19.18
17.43
8.77
-6.21
-24.81
-42.51
-54.06
-54.97
-43.13
-20.29
7.35
29.49
36.26
24.73
0.99
-24.54
-43.52
-52.93
-54.60
-52.56
-50.11
-47.97
-44.74
-38.78
-30.09
-20.65
-13.36
-10.57
-12.94
-19.13
-25.87
-29.71
-28.53
-22.70
-14.65
-7.65
-4.33
-5.94
-12.05
-21.00
-30.86
-39.81
-46.51
-49.89
-48.88
-42.52
-30.47
-13.50
7.87
31.00
53.19
73.36
92.75
114.31
140.53
171.29
203.01
229.76
245.67
247.80
237.08
217.33
193.12
167.79
142.78
118.35
94.76
72.66
53.21
36.91
23.08
9.87
-4.73
-21.86
-41.22
-61.36
-80.70
-98.27
-114.23
-129.59
-145.39
-161.58
-176.31
-186.11
-187.02
-176.30
-153.66
-121.69
-84.99
-48.52
-15.98
10.99
32.56
49.92
64.39
77.00
88.25
97.96
104.84
106.35
99.16
80.37
49.31
8.50
-36.31
-77.87
-109.78
-128.65
-134.76
-131.43
-123.29
-114.51
-107.70
-103.59
-101.54
-100.33
-98.96
-97.34
-96.72
-99.56
-109.00
-127.71
-156.38
-192.60
-230.74
-263.26
-282.96
-285.36
-270.18
-240.97
-203.61
-164.10
-127.03
-95.03
-69.20
-49.96
-37.33
-30.83
-29.16
-30.16
-31.16
-29.78
-24.53
-15.19
-2.59
11.87
26.88
41.52
55.55
69.21
82.90
96.73
110.31
122.68
132.81
140.13
144.89
147.87
150.00
151.77
153.16
153.61
152.47
149.48
145.04
139.99
134.83
129.22
122.15
112.56
99.80
84.27
67.52
51.90
39.63
31.48
26.53
22.82
18.53
12.09
2.58
-9.99
-24.31
-37.87
-47.99
-52.41
-49.69
-39.19
-21.95
-0.54
21.45
40.26
52.60
55.49
47.21
26.63
-1.85
-28.98
-45.59
-47.85
-39.56
-24.99
-7.79
9.66
26.37
42.49
57.52
70.35
79.77
85.62
89.60
94.16
101.55
112.80
127.23
142.08
153.73
159.56
159.42
155.48
149.97
143.28
133.41
117.25
92.42
59.22
21.17
-16.40
-48.74
-74.09
-94.00
-111.58
-129.11
-146.76
-162.76
-174.94
-182.31
-185.75
-187.66
-190.35
-194.35
-197.84
-197.28
-189.11
-171.45
-144.86
-112.14
-77.20
-43.77
-14.54
9.03
26.25
36.92
41.12
39.55
33.68
25.67
17.86
12.04
8.83
7.48
6.34
3.64
-1.58
-8.94
-16.78
-22.80
-24.97
-22.40
-15.71
-6.57
3.03
11.75
19.27
26.00
32.27
37.75
41.40
41.95
38.82
32.45
24.18
15.51
7.41
0.05
-6.94
-13.89
-20.60
-26.39
-30.52
-32.74
-33.62
-34.30
-35.95
-39.21
-43.99
-49.58
-55.08
-59.77
-63.26
-65.48
-66.72
-67.43
-68.21
-69.60
-71.77
-74.27
-76.00
-75.54
-71.63
-63.63
-51.80
-37.09
-20.80
-4.18
11.76
26.27
38.74
48.60
55.41
58.98
59.55
57.74
54.47
50.67
46.98
43.69
40.74
38.02
35.43
33.12
31.27
30.06
29.37
28.77
27.74
25.73
22.53
18.26
13.35
8.40
3.89
0.09
-3.11
-6.05
-9.27
-13.24
-18.17
-23.81
-29.47
-34.05
-36.43
-35.68
-31.40
-23.82
-13.79
-2.47
8.85
19.14
27.72
34.27
38.66
40.98
41.37
40.06
37.43
33.95
30.18
26.66
23.80
21.78
20.49
19.67
19.01
18.29
17.47
16.58
15.58
14.39
12.76
10.53
7.63
4.24
0.66
-2.80
-6.01
-9.12
-12.51
-16.48
-21.05
-25.77
-29.71
-31.74
-30.92
-26.77
-19.45
-9.72
1.29
12.39
22.56
31.14
37.76
42.29
44.67
44.97
43.33
40.10
35.85
31.32
27.28
24.28
22.45
21.54
21.06
20.48
19.45
17.86
15.72
13.17
10.28
7.15
3.87
0.50
-2.94
-6.43
-10.00
-13.69
-17.55
-21.59
-25.71
-29.58
-32.60
-33.93
-32.63
-28.06
-20.14
-9.50
2.59
14.61
25.15
33.33
38.81
41.73
42.50
41.58
39.43
36.50
33.27
30.18
27.60
25.63
24.14
22.85
21.50
20.04
18.54
17.21
16.12
15.15
13.93
12.04
9.20
5.42
1.05
-3.38
-7.42
-10.88
-13.98
-17.17
-20.95
-25.52
-30.54
-35.10
-37.97
-37.98
-34.46
-27.46
-17.77
-6.61
4.67
14.91
23.29
29.35
32.93
34.08
33.10
30.48
26.80
22.68
18.65
15.04
12.05
9.81
8.33
7.58
7.38
7.44
7.36
6.82
5.66
3.91
1.79
-0.46
-2.65
-4.75
-6.89
-9.25
-12.01
-15.29
-19.18
-23.68
-28.67
-33.69
-37.92
-40.24
-39.51
-35.02
-26.83
-15.89
-3.72
8.01
18.05
25.73
30.88
33.63
34.14
32.54
29.14
24.45
19.23
14.37
10.57
8.24
7.39
7.71
8.72
9.88
10.70
10.80
9.96
8.17
5.61
2.63
-0.38
-3.10
-5.37
-7.23
-8.89
-10.74
-13.21
-16.73
-21.46
-27.18
-33.09
-37.91
-40.18
-38.75
-33.23
-24.17
-12.89
-1.07
9.76
18.60
25.01
29.01
30.82
30.73
29.07
26.23
22.64
18.83
15.25
12.26
10.06
8.61
7.73
7.20
6.76
6.29
5.69
4.85
3.61
1.77
-0.73
-3.77
-7.03
-10.14
-12.86
-15.23
-17.51
-20.08
-23.32
-27.45
-32.44
-37.85
-42.84
-46.15
-46.42
-42.66
-34.63
-23.12
-9.72
3.63
15.32
24.39
30.63
34.30
35.79
35.44
33.50
30.32
26.40
22.45
19.14
16.93
15.84
15.40
14.89
13.68
11.55
8.86
6.33
4.63
4.00
4.10
4.23
3.73
2.39
0.63
-0.76
-1.09
-0.10
1.90
4.18
5.96
6.72
6.27
4.83
2.93
1.31
0.77
1.99
5.31
10.63
17.42
24.93
32.42
39.32
45.22
49.79
52.69
53.62
52.41
49.21
44.49
38.97
33.37
28.26
23.93
20.35
17.23
14.22
11.00
7.42
3.49
-0.66
-4.81
-8.78
-12.42
-15.67
-18.60
-21.29
-23.94
-26.67
-29.55
-32.43
-35.09
-37.30
-39.04
-40.53
-42.19
-44.55
-48.09
-53.04
-59.25
-65.98
-71.84
-74.99
-73.61
-66.55
-53.86
-36.85
-17.74
1.05
17.60
30.84
40.51
46.80
50.08
50.72
49.17
45.94
41.63
36.88
32.24
28.23
25.24
23.53
23.10
23.69
24.89
26.30
27.81
29.61
31.94
34.84
37.92
40.46
41.72
41.28
39.20
35.94
31.97
27.57
22.64
16.87
9.95
1.71
-7.70
-17.93
-28.45
-38.61
-47.66
-54.84
-59.42
-60.86
-58.92
-53.81
-46.34
-37.84
-29.78
-23.50
-19.73
-18.61
-19.90
-23.29
-28.67
-35.87
-44.36
-52.85
-59.39
-61.93
-59.06
-50.65
-37.97
-23.12
-8.25
5.24
16.92
27.16
36.55
45.36
53.32
59.87
64.45
66.88
67.46
66.71
65.10
62.79
59.67
55.50
50.15
43.64
36.03
27.33
17.49
6.61
-4.78
-15.67
-24.70
-30.49
-32.18
-29.68
-23.75
-15.77
-7.27
0.44
6.60
10.95
13.56
14.53
13.77
11.16
6.77
1.21
-4.45
-8.97
-11.53
-12.07
-11.31
-10.28
-9.60
-9.12
-8.00
-5.26
-0.49
5.68
11.83
16.24
17.73
16.19
12.61
8.65
6.01
5.81
8.22
12.47
17.23
21.01
22.68
21.95
19.72
18.31
21.36
33.11
56.97
93.83
140.77
190.98
235.38
265.28
274.99
263.29
233.24
190.63
142.07
93.50
49.54
13.40
-13.01
-29.02
-35.29
-33.81
-27.78
-21.07
-17.56
-20.23
-30.50
-47.74
-69.50
-92.35
-113.03
-129.36
-140.48
-146.43
-147.53
-143.95
-136.02
-124.78
-112.23
-100.94
-93.22
-90.01
-90.62
-93.14
-95.39
-95.96
-94.59
-91.98
-89.12
-86.55
-84.05
-80.77
-75.78
-68.56
-59.37
-49.08
-38.76
-29.36
-21.41
-15.07
-10.32
-7.10
-5.35
-4.96
-5.61
-6.75
-7.74
-8.11
-7.62
-6.44
-4.96
-3.62
-2.84
-2.87
-3.85
-5.75
-8.43
-11.64
-15.14
-18.77
-22.47
-26.28
-30.17
-34.06
-37.77
-41.17
-44.35
-47.65
-51.48
-56.09
-61.18
-65.75
-68.44
-67.94
-63.67
-56.06
-46.44
-36.49
-27.64
-20.67
-15.68
-12.47
-10.86
-10.89
-12.61
-15.76
-19.62
-23.16
-25.42
-25.97
-25.01
-23.17
-20.99
-18.59
-15.58
-11.44
-5.89
0.70
7.38
12.85
16.08
16.63
14.88
11.72
8.18
4.95
2.23
-0.18
-2.64
-5.41
-8.57
-12.11
-15.98
-19.98
-23.57
-25.81
-25.52
-21.73
-14.23
-3.81
7.96
19.29
28.89
36.22
41.45
45.02
47.26
48.30
48.11
46.83
44.79
42.57
40.70
39.54
39.14
39.30
39.67
39.88
39.63
38.79
37.43
35.74
33.96
32.19
30.39
28.34
25.80
22.58
18.67
14.28
9.68
5.19
1.00
-2.80
-6.25
-9.50
-12.87
-16.56
-20.57
-24.77
-29.20
-34.07
-39.57
-45.62
-51.54
-56.25
-58.31
-56.39
-50.01
-39.97
-28.07
-16.34
-6.31
1.41
6.47
9.13
9.96
9.53
8.11
5.72
2.63
-0.61
-3.16
-4.66
-4.59
-2.32
2.75
10.64
21.02
33.70
48.72
68.59
92.50
116.55
135.70
147.47
152.55
152.55
149.73
145.81
142.96
142.29
144.07
147.77
152.24
155.80
156.65
153.47
145.60
133.02
115.91
95.27
72.87
50.91
30.95
13.48
-2.08
-17.11
-33.11
-51.40
-72.20
-94.17
-114.86
-131.52
-141.94
-145.01
-140.91
-130.95
-117.38
-102.49
-88.11
-75.45
-65.10
-57.37
-52.33
-49.85
-49.48
-50.55
-52.10
-53.15
-52.97
-51.31
-48.50
-45.12
-41.79
-38.91
-36.63
-34.91
-33.57
-32.43
-31.30
-29.94
-28.22
-26.17
-24.13
-22.72
-22.60
-24.17
-27.30
-31.33
-35.35
-38.46
-40.15
-40.52
-40.09
-39.64
-39.90
-41.37
-44.16
-48.11
-52.94
-58.45
-64.54
-71.24
-78.58
-86.52
-94.91
-103.34
-111.19
-117.58
-121.50
-121.99
-118.39
-110.57
-99.07
-84.99
-69.64
-54.29
-39.84
-26.67
-14.70
-3.49
7.49
18.64
29.95
41.08
51.54
61.01
69.55
77.48
85.09
92.21
98.20
102.33
104.36
104.87
105.20
106.79
110.29
115.23
120.17
123.56
124.53
123.33
121.04
118.94
117.78
117.55
117.61
117.19
115.87
113.72
111.12
108.44
105.74
102.76
98.99
94.01
87.64
80.00
71.30
61.61
50.72
38.29
24.32
9.55
-4.42
-15.45
-21.65
-22.10
-17.36
-9.20
0.11
8.51
14.72
18.31
19.40
18.27
15.20
10.49
4.63
-1.61
-7.33
-11.66
-14.05
-14.41
-13.09
-10.74
-8.12
-5.92
-4.53
-4.05
-4.33
-5.11
-6.26
-7.88
-10.31
-13.91
-18.94
-25.34
-32.72
-40.44
-47.84
-54.31
-59.47
-63.17
-65.59
-67.19
-68.64
-70.59
-73.57
-77.86
-83.46
-90.10
-97.18
-103.71
-108.36
-109.72
-106.75
-99.19
-87.85
-74.37
-60.76
-48.73
-39.36
-33.06
-29.80
-29.46
-31.83
-36.62
-43.21
-50.57
-57.53
-63.11
-66.96
-69.44
-71.55
-74.45
-78.96
-85.12
-92.11
-98.42
-102.47
-103.07
-99.92
-93.65
-85.51
-76.93
-68.91
-61.80
-55.41
-49.35
-43.54
-38.43
-34.99
-34.39
-37.45
-44.23
-53.99
-65.19
-75.81
-83.73
-87.14
-84.91
-76.85
-63.88
-47.76
-30.68
-14.60
-0.70
10.76
20.22
28.28
35.37
41.51
46.59
50.67
54.11
57.53
61.43
65.87
70.41
74.25
76.69
77.47
76.88
75.69
74.65
74.05
73.64
72.55
69.81
64.77
57.54
48.94
40.18
32.37
26.05
21.00
16.43
11.25
4.53
-4.25
-14.88
-26.36
-36.93
-44.50
-47.15
-43.80
-34.53
-20.63
-4.12
12.88
28.71
42.35
53.36
61.72
67.60
71.32
73.33
74.11
74.17
73.90
73.53
73.19
72.98
72.99
73.23
73.57
73.82
73.77
73.33
72.51
71.34
69.80
67.68
64.74
60.84
56.10
50.87
45.57
40.46
35.53
30.49
25.07
19.23
13.22
7.48
2.41
-1.86
-5.56
-9.22
-13.41
-18.65
-25.16
-32.73
-40.67
-47.75
-52.41
-53.06
-48.64
-38.95
-24.86
-8.02
9.66
26.65
42.10
55.85
67.96
78.30
86.30
91.01
91.65
88.18
81.57
73.80
67.25
64.02
65.24
70.73
79.09
88.26
96.06
100.77
101.32
97.25
88.57
75.66
59.45
41.41
23.57
8.04
-3.58
-10.77
-14.27
-15.75
-17.13
-19.84
-24.34
-30.22
-36.59
-42.70
-48.35
-54.06
-60.90
-70.07
-82.44
-98.19
-116.52
-135.65
-153.03
-165.77
-171.28
-167.87
-155.28
-134.70
-108.65
-80.33
-52.71
-27.73
-5.63
14.52
33.83
52.62
70.10
84.47
93.79
97.10
94.76
88.60
80.85
73.09
65.79
58.89
52.03
45.00
37.98
31.20
25.23
20.32
15.99
11.48
7.05
3.20
0.27
-1.80
-3.98
-6.11
-7.95
-9.68
-11.55
-11.77
-8.87
-2.74
4.98
10.49
13.01
13.33
12.94
14.07
22.05
40.63
69.97
106.23
141.48
172.39
198.19
219.26
237.13
257.68
285.37
320.95
360.89
396.83
426.34
449.56
467.16
451.63
386.76
275.65
141.56
32.13
-48.04
-103.69
-140.20
-166.63
-187.40
-201.86
-209.56
-211.73
-211.51
-215.30
-223.19
-233.49
-245.10
-257.15
-266.11
-269.31
-266.28
-259.30
-254.16
-251.95
-251.64
-251.46
-248.97
-240.31
-223.02
-197.42
-166.73
-136.99
-111.37
-91.19
-76.69
-66.99
-59.91
-53.41
-46.36
-38.84
-32.23
-26.68
-21.78
-17.03
-11.81
-5.48
2.14
10.50
18.49
24.65
28.42
30.03
30.27
30.07
30.03
30.21
30.17
29.30
27.12
23.60
19.15
14.45
10.15
6.62
3.83
1.46
-0.94
-3.82
-7.54
-12.37
-18.41
-25.44
-32.68
-38.81
-42.15
-41.22
-35.32
-24.89
-11.49
2.77
15.97
26.88
35.15
41.02
44.91
47.09
47.62
46.50
43.92
40.37
36.60
33.34
31.10
30.03
29.94
30.42
31.06
31.53
31.60
31.08
29.85
27.80
24.91
21.25
17.00
12.43
7.73
3.02
-1.67
-6.44
-11.29
-16.15
-20.86
-25.20
-29.02
-32.35
-35.35
-38.33
-41.60
-45.41
-49.75
-54.22
-57.98
-59.82
-58.48
-53.11
-43.61
-30.80
-16.19
-1.52
11.70
22.56
30.72
36.29
39.58
40.90
40.62
39.16
36.95
34.46
32.02
29.75
27.65
25.66
23.70
21.79
19.89
17.94
15.75
13.05
9.54
4.92
-0.96
-7.92
-15.29
-21.87
-26.10
-26.58
-22.72
-15.09
-5.39
4.08
11.31
15.32
16.40
15.79
14.87
14.48
14.42
13.77
11.43
6.98
1.04
-4.79
-8.55
-8.78
-5.05
2.00
11.09
20.87
30.22
38.33
44.43
47.75
47.79
44.67
39.37
33.45
28.43
25.08
23.21
21.90
20.29
17.98
15.26
12.70
10.73
9.34
8.22
7.07
5.80
4.58
3.55
2.55
1.05
-1.65
-6.00
-11.89
-18.61
-25.17
-30.66
-34.69
-37.40
-39.35
-41.20
-43.49
-46.57
-50.51
-55.06
-59.41
-62.26
-61.93
-56.91
-46.47
-31.10
-12.58
6.58
23.83
37.21
45.67
48.94
47.24
41.06
31.13
18.45
4.29
-10.05
-23.50
-35.48
-45.94
-55.16
-63.36
-70.45
-75.93
-79.10
-79.49
-77.22
-73.09
-68.38
-64.31
-61.60
-60.28
-59.78
-59.36
-58.46
-56.91
-54.80
-52.32
-49.59
-46.63
-43.49
-40.24
-36.94
-33.34
-28.90
-22.84
-14.53
-3.82
8.71
21.97
34.71
45.90
54.95
61.65
66.04
68.29
68.64
67.40
64.96
61.76
58.21
54.60
51.14
47.99
45.38
43.56
42.66
42.64
43.33
44.51
45.88
47.07
47.65
47.23
45.40
41.69
35.84
27.95
18.69
9.12
0.22
-7.35
-13.51
-18.68
-24.05
-31.01
-40.49
-52.29
-64.91
-75.92
-82.52
-82.42
-74.55
-60.08
-42.01
-24.15
-9.83
-1.06
1.88
0.44
-2.74
-1.86
7.67
27.00
52.54
78.32
99.37
113.43
120.53
121.52
117.65
109.42
97.26
82.35
66.95
53.80
45.11
41.81
42.04
44.49
47.30
48.84
48.40
46.24
43.29
40.43
38.22
36.26
34.50
32.73
30.99
29.50
28.39
27.21
24.52
21.97
19.05
15.40
10.85
5.67
0.37
-4.54
-8.71
-11.86
-13.61
-14.01
-12.82
-10.05
-6.25
-2.42
0.22
0.76
-1.00
-4.48
-8.99
-13.56
-17.57
-20.78
-23.34
-25.41
-27.01
-27.92
-27.89
-27.09
-25.83
-24.60
-23.82
-23.78
-24.45
-25.65
-27.10
-28.56
-30.10
-31.81
-33.72
-35.68
-37.39
-38.51
-38.82
-38.44
-37.78
-37.45
-37.95
-39.43
-41.57
-43.63
-44.61
-43.63
-40.09
-33.87
-25.42
-15.71
-6.01
2.37
8.46
11.94
13.04
12.43
10.85
8.82
6.55
4.13
1.67
-0.52
-2.08
-2.73
-2.53
-1.93
-1.62
-2.18
-3.81
-6.18
-8.64
-10.58
-11.69
-12.16
-12.56
-13.55
-15.45
-18.17
-21.21
-23.94
-25.97
-27.32
-28.34
-29.45
-30.92
-32.71
-34.69
-36.79
-39.19
-42.06
-45.31
-48.22
-49.49
-47.68
-41.96
-32.58
-20.97
-9.08
1.31
9.29
14.93
18.82
21.57
23.33
23.83
22.81
20.37
17.10
13.93
11.68
10.67
10.82
11.71
12.90
14.05
15.00
15.60
15.71
15.15
13.81
11.72
9.07
6.11
3.12
0.30
-2.19
-4.20
-5.61
-6.34
-6.36
-5.86
-5.17
-4.71
-4.79
-5.46
-6.58
-7.88
-9.23
-10.69
-12.59
-15.22
-18.77
-23.02
-27.28
-30.54
-31.69
-29.83
-24.54
-16.11
-5.53
5.79
16.29
24.74
30.43
33.30
33.78
32.53
30.22
27.39
24.40
21.37
18.36
15.34
12.41
9.71
7.44
5.72
4.53
3.66
2.91
2.19
1.53
1.01
0.49
-0.44
-2.37
-5.67
-10.16
-15.13
-19.57
-22.70
-24.40
-25.16
-25.78
-26.81
-28.30
-29.88
-31.12
-31.86
-32.37
-33.10
-34.37
-36.25
-38.54
-40.94
-43.18
-44.86
-45.32
-43.62
-38.77
-30.24
-18.32
-4.27
9.96
22.47
31.96
38.02
41.03
41.64
40.42
37.65
33.55
28.53
23.38
19.17
16.74
16.34
17.42
18.85
19.46
18.64
16.55
13.93
11.66
10.16
9.24
8.15
6.17
3.00
-1.00
-5.02
-8.25
-10.40
-11.80
-13.16
-15.15
-17.93
-21.13
-24.08
-26.30
-27.83
-29.19
-31.11
-34.07
-37.90
-41.81
-44.51
-44.67
-41.38
-34.49
-24.64
-13.15
-1.47
9.17
18.02
24.70
29.00
30.72
29.66
25.87
19.92
12.86
5.96
0.36
-3.36
-5.06
-5.07
-3.81
-1.72
0.86
3.62
6.26
8.54
10.28
11.40
11.88
11.71
10.85
9.18
6.56
2.85
-1.85
-7.22
-12.75
-17.93
-22.43
-26.34
-30.16
-34.58
-40.09
-46.55
-53.04
-57.99
-59.68
-56.86
-49.22
-37.67
-24.05
-10.40
1.33
10.02
15.35
17.47
16.62
13.02
6.84
-1.50
-11.09
-20.88
-29.76
-37.00
-42.61
-47.47
-52.95
-60.43
-70.77
-83.65
-98.16
-112.39
-124.13
-131.46
-133.11
-128.59
-118.23
-103.17
-84.60
-65.58
-48.58
-35.60
-27.83
-25.18
-26.61
-30.51
-35.37
-38.91
-42.06
-44.86
-47.40
-49.55
-50.63
-49.42
-44.30
-33.71
-14.68
10.52
40.41
72.29
102.96
129.67
150.84
166.34
177.00
186.33
191.94
193.60
191.00
184.40
175.09
165.03
155.94
132.37
113.96
95.90
76.86
56.87
37.28
20.04
6.51
-3.30
-10.74
-15.17
-20.80
-27.83
-35.32
-41.80
-46.07
-47.74
-47.35
-45.95
-42.59
-40.13
-38.78
-38.50
-39.22
-40.97
-43.99
-48.48
-54.32
-59.56
-64.15
-66.19
-63.75
-55.68
-42.09
-24.46
-5.23
13.06
29.17
41.72
50.93
57.37
61.38
62.93
61.86
58.33
53.18
47.96
43.84
41.73
41.74
43.24
45.30
47.14
48.36
48.95
49.02
48.63
47.61
45.62
42.31
37.44
31.08
23.62
15.78
8.34
1.96
-3.08
-6.98
-10.39
-14.23
-19.35
-26.21
-34.55
-43.43
-51.18
-55.94
-56.05
-50.68
-40.04
-25.43
-8.79
7.77
22.52
34.33
42.75
47.83
49.96
49.70
47.92
45.38
42.67
40.19
38.16
36.79
36.17
36.26
36.89
37.89
39.09
40.26
41.15
41.53
41.14
39.69
36.90
32.68
27.62
22.56
18.24
14.91
12.35
9.94
6.95
2.65
-3.29
-9.67
-14.94
-17.92
-17.99
-14.83
-8.10
2.38
16.24
32.40
51.40
73.05
95.77
116.86
133.88
145.78
152.90
156.25
156.92
159.27
166.54
179.08
194.33
208.94
220.86
229.74
236.26
241.49
250.94
268.95
295.87
327.59
358.11
382.48
398.06
404.60
374.27
294.32
173.21
37.16
-87.39
-187.26
-262.14
-317.49
-359.10
-389.79
-409.77
-417.79
-414.62
-403.60
-388.36
-370.60
-350.31
-327.16
-300.33
-268.31
-231.28
-192.11
-155.40
-125.08
-102.74
-87.94
-79.38
-75.81
-74.33
-72.23
-68.48
-63.87
-59.89
-57.54
-57.05
-58.16
-60.47
-62.80
-63.95
-63.58
-62.19
-60.41
-58.52
-56.46
-54.13
-51.69
-49.25
-46.95
-45.02
-43.73
-43.13
-42.91
-42.61
-41.84
-40.59
-39.27
-38.47
-38.84
-40.81
-44.52
-49.54
-54.92
-59.14
-60.48
-57.47
-49.38
-36.47
-20.06
-2.08
15.44
30.84
43.11
51.93
57.47
60.26
60.92
60.15
58.54
56.62
54.80
53.36
52.49
52.26
52.56
53.16
53.77
54.22
54.46
54.58
54.67
54.67
54.30
53.24
51.20
48.16
44.39
40.33
36.46
33.07
30.15
27.41
24.42
20.79
16.35
11.23
5.81
0.57
-4.06
-7.92
-11.11
-14.03
-17.11
-20.80
-25.38
-30.86
-36.88
-42.67
-47.04
-48.56
-46.04
-38.84
-27.35
-12.93
2.40
16.58
28.14
36.50
41.90
44.92
46.14
45.82
44.03
40.88
36.80
32.48
28.72
26.12
24.84
24.68
25.17
25.86
26.47
26.89
27.06
26.83
25.96
24.19
21.48
18.00
14.10
10.17
6.38
2.68
-1.11
-5.09
-9.19
-13.13
-16.63
-19.58
-22.12
-24.52
-27.04
-29.87
-33.08
-36.76
-40.87
-45.10
-48.64
-50.20
-48.44
-42.44
-32.23
-19.01
-4.73
8.58
19.41
27.21
32.17
34.91
36.00
35.75
34.30
31.85
28.82
25.86
23.67
22.69
22.90
23.89
24.99
25.67
25.71
25.27
24.67
24.13
23.65
22.95
21.69
19.63
16.75
13.21
9.34
5.46
1.83
-1.39
-4.15
-6.55
-8.77
-11.05
-13.60
-16.58
-20.04
-23.96
-28.24
-32.60
-36.44
-38.86
-38.78
-35.36
-28.32
-18.22
-6.34
5.67
16.32
24.61
30.17
33.14
33.86
32.68
29.97
26.15
21.75
17.39
13.64
10.80
8.83
7.38
6.01
4.32
2.20
-0.19
-2.51
-4.37
-5.45
-5.69
-5.26
-4.54
-4.05
-4.25
-5.38
-7.44
-10.15
-13.16
-16.17
-19.04
-21.78
-24.40
-26.82
-28.81
-30.18
-30.98
-31.59
-32.62
-34.55
-37.35
-40.24
-41.86
-40.78
-36.12
-27.90
-17.04
-5.01
6.73
17.12
25.65
32.22
36.94
39.93
41.29
41.14
39.70
37.32
34.44
31.49
28.81
26.58
24.82
23.42
22.23
21.05
19.79
18.39
16.85
15.25
13.73
12.50
11.78
11.71
12.31
13.44
14.85
16.21
17.26
17.85
18.03
18.03
18.19
18.80
20.00
21.62
23.22
24.20
24.04
22.58
20.20
17.75
16.34
16.91
19.98
25.41
32.52
40.33
47.93
54.68
60.19
64.27
66.74
67.43
66.26
63.37
59.13
54.07
48.74
43.43
38.25
33.14
28.07
23.15
18.64
14.71
11.37
8.32
5.17
1.59
-2.52
-6.96
-11.37
-15.43
-19.06
-22.43
-25.95
-30.06
-35.09
-41.03
-47.61
-54.25
-60.37
-65.56
-69.80
-73.48
-77.14
-81.24
-85.84
-90.59
-94.84
-97.84
-99.00
-97.79
-93.74
-86.49
-75.84
-62.11
-46.28
-29.77
-14.14
-0.52
10.57
19.19
25.65
30.20
32.97
34.11
33.99
33.21
32.39
31.87
31.51
30.75
29.01
26.03
22.01
17.55
13.35
9.94
7.57
6.12
5.23
4.38
3.03
0.78
-2.44
-6.40
-10.59
-14.49
-17.76
-20.35
-22.40
-24.05
-25.31
-26.04
-26.10
-25.51
-24.55
-23.62
-22.98
-22.51
-21.62
-19.47
-15.38
-9.25
-1.71
6.14
13.15
18.65
22.57
25.39
27.69
29.84
31.93
33.75
35.08
35.76
35.74
35.08
33.88
32.36
30.82
29.58
28.87
28.74
29.10
29.72
30.39
30.90
31.12
31.01
30.62
30.09
29.61
29.27
28.98
28.40
26.93
24.09
19.76
14.33
8.57
3.29
-0.97
-4.22
-6.82
-9.41
-12.32
-15.48
-18.45
-20.88
-22.75
-24.40
-26.27
-28.59
-31.76
-35.92
-41.12
-47.34
-54.50
-62.40
-70.54
-78.10
-84.17
-89.03
-93.25
-97.27
-100.93
-103.64
-104.65
-103.51
-100.23
-95.35
-91.05
-89.19
-90.26
-93.30
-96.67
-98.93
-99.35
-97.87
-94.78
-92.14
-91.56
-93.31
-96.59
-100.38
-104.09
-107.75
-111.64
-104.89
-81.03
-40.45
8.97
56.73
95.46
123.05
140.83
151.43
157.30
158.32
152.79
141.32
125.81
108.55
91.95
77.78
67.11
60.35
55.92
51.79
46.21
40.66
35.27
29.89
24.31
18.69
13.61
9.07
5.11
2.05
0.26
-0.39
-0.27
-0.04
-0.44
-1.97
-5.14
-9.86
-15.26
-20.18
-23.78
-25.48
-25.02
-22.34
-17.48
-10.84
-3.12
4.81
12.03
17.66
21.38
23.36
24.16
24.37
24.31
23.97
23.16
21.69
19.51
16.94
14.47
12.64
11.78
11.92
12.89
14.30
15.64
16.41
16.20
14.85
12.48
9.54
6.57
4.10
2.35
1.18
0.16
-1.19
-3.28
-6.23
-9.89
-13.97
-17.93
-21.09
-22.69
-22.01
-18.63
-12.71
-5.06
2.97
10.01
15.11
17.99
18.96
18.65
17.58
16.07
14.21
12.01
9.56
7.04
4.72
2.74
1.20
0.07
-0.73
-1.27
-1.64
-1.88
-2.05
-2.17
-2.28
-2.44
-2.81
-3.57
-4.79
-6.43
-8.30
-10.19
-12.01
-13.87
-16.07
-18.84
-22.24
-25.90
-29.08
-30.91
-30.62
-27.84
-22.71
-15.81
-8.03
-0.26
6.70
12.33
16.33
18.52
18.87
17.55
14.92
11.60
8.33
5.79
4.42
4.26
5.06
6.31
7.57
8.56
9.20
9.55
9.67
9.56
9.16
8.39
7.25
5.78
4.07
2.23
0.38
-1.43
-3.14
-4.74
-6.22
-7.65
-9.19
-11.06
-13.54
-16.73
-20.51
-24.39
-27.58
-29.16
-28.38
-24.89
-18.94
-11.32
-3.14
4.52
10.87
15.48
18.38
19.77
20.01
19.39
18.11
16.37
14.37
12.40
10.77
9.74
9.45
9.85
10.70
11.66
12.37
12.62
12.38
11.82
11.18
10.69
10.44
10.28
9.86
8.77
6.76
3.87
0.53
-2.66
-5.19
-6.89
-8.02
-9.18
-10.92
-13.54
-16.91
-20.58
-24.02
-26.75
-28.43
-28.80
-27.63
-24.73
-20.07
-13.91
-6.82
0.51
7.41
13.36
18.00
21.03
22.21
21.53
19.24
15.99
12.63
9.96
8.44
8.09
8.58
9.53
10.62
11.68
12.60
13.24
13.41
12.95
11.83
10.17
8.21
6.21
4.37
2.74
1.26
-0.23
-1.90
-3.82
-5.93
-8.03
-9.90
-11.44
-12.74
-13.99
-15.47
-17.34
-19.75
-22.68
-26.04
-29.48
-32.39
-33.88
-33.09
-29.46
-23.06
-14.65
-5.44
3.33
10.66
16.12
19.58
21.17
20.99
19.19
16.05
12.06
7.97
4.53
2.34
1.63
2.22
3.64
5.38
7.00
8.28
9.19
9.80
10.15
10.19
9.79
8.75
6.96
4.50
1.65
-1.19
-3.60
-5.42
-6.72
-7.83
-9.20
-11.25
-14.26
-18.31
-23.18
-28.36
-33.08
-36.35
-37.25
-35.14
-29.88
-21.97
-12.47
-2.69
6.10
13.06
17.92
20.85
22.28
22.66
22.20
20.89
18.69
15.77
12.65
10.11
8.86
9.23
10.98
13.40
15.64
17.03
17.37
16.81
15.74
14.41
12.93
11.25
9.33
7.32
5.43
3.83
2.39
0.72
-1.62
-4.81
-8.58
-12.29
-15.35
-17.52
-19.13
-20.86
-23.39
-27.00
-31.44
-36.02
-39.83
-42.05
-42.04
-39.39
-33.95
-25.95
-16.07
-5.39
4.79
13.30
19.39
22.84
23.92
23.19
21.23
18.63
15.87
13.41
11.69
11.01
11.46
12.87
14.89
17.10
19.10
20.68
21.73
22.25
22.24
21.68
20.51
18.69
16.29
13.51
10.65
8.08
6.02
4.45
3.04
1.28
-1.24
-4.55
-8.19
-11.47
-13.80
-15.10
-15.90
-17.05
-19.38
-23.21
-28.19
-33.41
-37.69
-39.91
-39.31
-35.57
-28.88
-19.93
-9.86
0.03
8.53
14.86
18.81
20.66
20.90
20.00
18.26
15.96
13.46
11.21
9.71
9.28
9.90
11.37
13.38
15.66
18.00
20.17
21.85
22.74
22.69
21.82
20.47
19.04
17.69
16.27
14.46
12.01
8.98
5.75
2.80
0.47
-1.23
-2.57
-3.91
-5.46
-7.28
-9.22
-11.18
-13.09
-14.95
-16.78
-18.53
-20.15
-21.65
-23.28
-25.43
-28.45
-32.27
-36.26
-39.27
-39.93
-37.30
-31.15
-22.24
-11.99
-1.99
6.46
12.70
16.68
18.81
19.54
19.24
18.04
16.09
13.66
11.24
9.50
8.98
9.96
12.23
15.23
18.26
20.74
22.36
23.08
23.01
22.26
20.93
19.10
16.97
14.76
12.69
10.89
9.27
7.68
5.94
4.03
2.12
0.40
-1.00
-2.19
-3.39
-4.88
-6.73
-8.83
-10.94
-12.83
-14.44
-15.84
-17.25
-18.86
-20.84
-23.37
-26.60
-30.58
-35.12
-39.61
-43.06
-44.30
-42.31
-36.70
-27.92
-17.13
-5.90
4.24
12.22
17.61
20.50
21.31
20.49
18.49
15.66
12.47
9.46
7.23
6.33
7.01
9.15
12.25
15.61
18.52
20.51
21.45
21.58
21.23
20.66
19.86
18.59
16.60
13.86
10.62
7.40
4.68
2.72
1.43
0.43
-0.77
-2.65
-5.43
-9.04
-13.18
-17.31
-20.93
-23.78
-25.97
-28.03
-30.59
-34.06
-38.19
-42.05
-44.24
-43.47
-39.07
-31.23
-20.92
-9.56
1.47
11.10
18.73
24.26
27.85
29.87
30.77
31.10
31.44
32.27
33.99
36.76
40.49
44.80
49.28
53.50
57.13
60.01
62.07
63.27
63.53
62.70
60.58
56.91
51.50
44.35
35.68
26.05
16.21
6.91
-1.35
-8.49
-14.80
-20.77
-26.81
-32.99
-39.00
-44.27
-48.33
-50.94
-52.32
-53.06
-53.94
-55.68
-58.64
-62.84
-67.76
-72.45
-75.70
-76.25
-73.14
-66.06
-55.59
-43.13
-30.44
-19.19
-10.35
-4.10
0.04
2.76
4.66
6.01
6.85
7.17
7.11
6.95
7.13
8.06
9.94
12.66
15.81
18.88
21.41
23.25
24.53
25.49
26.33
27.02
27.38
27.32
26.90
26.40
26.16
26.42
27.16
28.20
29.34
30.48
31.76
33.43
35.75
38.68
41.93
44.82
46.47
46.05
43.09
37.72
30.80
23.73
17.96
14.50
13.46
14.00
14.64
13.78
10.29
3.90
-4.78
-14.57
-24.09
-32.21
-38.17
-41.63
-42.61
-41.41
-38.56
-34.79
-30.90
-27.56
-25.17
-23.77
-23.09
-22.74
-22.38
-21.84
-21.14
-20.36
-19.61
-19.01
-18.66
-18.69
-19.11
-19.79
-20.46
-20.73
-20.39
-19.51
-18.52
-18.05
-18.71
-20.87
-24.49
-29.14
-34.16
-38.83
-42.56
-45.13
-46.71
-47.88
-49.47
-52.24
-56.59
-62.28
-68.48
-73.81
-76.78
-76.13
-71.18
-62.04
-49.52
-34.97
-19.85
-5.50
7.23
17.99
26.87
34.27
40.59
46.10
50.86
54.84
58.08
60.78
63.25
65.74
68.27
70.64
72.53
73.72
74.20
74.17
73.87
73.33
72.37
70.60
67.68
63.45
58.08
52.01
45.78
39.90
34.70
30.26
26.41
22.81
19.17
15.33
11.45
7.85
4.90
2.75
1.24
-0.04
-1.56
-3.61
-6.20
-9.01
-11.68
-13.93
-15.74
-17.29
-18.88
-20.69
-22.79
-25.12
-27.57
-30.03
-32.42
-34.64
-36.56
-38.21
-39.79
-41.78
-44.75
-49.05
-54.50
-60.16
-64.47
-65.66
-62.46
-54.60
-42.91
-29.04
-14.95
-2.25
8.12
15.91
21.42
25.11
27.45
28.72
29.14
28.93
28.43
28.07
28.23
29.13
30.69
32.55
34.26
35.46
36.12
36.43
36.73
37.16
37.54
37.48
36.59
34.77
32.29
29.67
27.41
25.71
24.52
23.55
22.46
21.03
19.19
16.92
14.18
11.00
7.47
3.85
0.50
-2.20
-4.13
-5.45
-6.56
-7.96
-9.96
-12.50
-15.22
-17.59
-19.28
-20.31
-21.07
-22.19
-24.26
-27.53
-31.85
-36.69
-41.28
-44.64
-45.85
-44.14
-39.06
-30.80
-20.16
-8.55
2.40
11.34
17.52
20.97
22.21
21.97
20.88
19.32
17.57
15.89
14.60
13.96
14.13
15.01
16.33
17.80
19.18
20.35
21.23
21.78
21.95
21.65
20.86
19.61
17.98
16.17
14.37
12.72
11.22
9.70
7.93
5.75
3.20
0.50
-2.00
-4.08
-5.73
-7.07
-8.29
-9.48
-10.67
-11.88
-13.25
-14.92
-16.95
-19.15
-21.24
-23.04
-24.69
-26.71
-29.71
-33.95
-38.96
-43.60
-46.39
-46.05
-42.10
-34.89
-25.48
-15.17
-5.22
3.50
10.45
15.38
18.36
19.64
19.69
19.11
18.45
18.05
18.04
18.28
18.51
18.56
18.39
18.15
18.08
18.42
19.25
20.39
21.54
22.33
22.49
21.95
20.79
19.19
17.34
15.31
13.07
10.61
7.97
5.37
3.10
1.43
0.46
0.03
-0.23
-0.80
-2.05
-4.10
-6.80
-9.73
-12.40
-14.43
-15.75
-16.53
-17.18
-18.11
-19.60
-21.79
-24.72
-28.31
-32.41
-36.67
-40.48
-42.97
-43.27
-40.86
-35.77
-28.70
-20.68
-12.74
-5.57
0.58
5.72
9.90
13.17
15.51
17.01
17.80
18.06
17.94
17.52
16.88
16.15
15.59
15.48
16.00
17.11
18.55
20.00
21.13
21.70
21.58
20.70
19.17
17.27
15.47
14.16
13.52
13.34
13.12
12.39
10.87
8.66
6.09
3.56
1.29
-0.59
-2.09
-3.29
-4.29
-5.21
-6.25
-7.59
-9.32
-11.46
-13.86
-16.34
-18.72
-20.87
-22.68
-24.15
-25.41
-26.67
-28.14
-29.84
-31.42
-32.24
-31.63
-29.14
-24.75
-18.90
-12.29
-5.59
0.61
5.89
9.91
12.46
13.47
13.06
11.62
9.72
7.93
6.70
6.27
6.62
7.56
8.76
9.96
11.00
11.92
12.88
14.03
15.35
16.55
17.24
17.11
16.14
14.58
12.76
10.89
8.98
6.93
4.74
2.59
0.79
-0.49
-1.40
-2.39
-3.97
-6.33
-9.22
-12.03
-14.15
-15.36
-15.87
-16.32
-17.29
-19.13
-21.77
-24.81
-27.69
-29.78
-30.58
-29.73
-27.09
-22.86
-17.48
-11.57
-5.79
-0.62
3.61
6.80
8.97
10.26
10.87
11.10
11.28
11.65
12.27
12.99
13.51
13.56
13.04
12.16
11.27
10.81
11.00
11.77
12.82
13.71
14.11
13.85
13.03
11.84
10.48
9.08
7.70
6.41
5.26
4.30
3.51
2.82
2.04
0.97
-0.52
-2.51
-4.94
-7.57
-10.02
-11.91
-12.93
-13.17
-13.02
-13.05
-13.80
-15.53
-18.20
-21.51
-25.07
-28.48
-31.27
-32.90
-32.78
-30.52
-26.08
-19.89
-12.77
-5.65
0.71
5.78
9.40
11.62
12.66
12.86
12.60
12.27
12.20
12.48
13.13
14.00
14.92
15.75
16.44
17.01
17.47
17.87
18.22
18.49
18.53
18.15
17.20
15.61
13.54
11.27
9.23
7.75
7.00
6.88
7.09
7.20
6.85
5.88
4.40
2.70
1.18
0.09
-0.61
-1.17
-1.93
-3.14
-4.85
-6.90
-9.01
-10.93
-12.59
-14.10
-15.68
-17.62
-20.05
-22.93
-25.93
-28.59
-30.33
-30.58
-28.97
-25.46
-20.39
-14.43
-8.42
-3.12
0.94
3.63
5.19
6.11
6.87
7.71
8.58
9.29
9.65
9.75
9.79
10.03
10.58
11.29
11.90
12.22
12.28
12.22
12.18
12.11
11.84
11.17
10.09
8.83
7.66
6.76
6.08
5.38
4.48
3.34
2.14
1.04
0.14
-0.71
-1.66
-2.88
-4.31
-5.77
-7.06
-8.04
-8.80
-9.50
-10.40
-11.60
-13.08
-14.70
-16.39
-18.20
-20.30
-22.70
-25.14
-27.00
-27.40
-25.60
-21.38
-15.15
-7.89
-0.76
5.28
9.69
12.39
13.63
13.72
12.95
11.56
9.72
7.71
5.84
4.47
3.91
4.29
5.56
7.41
9.41
11.17
12.41
12.99
12.93
12.29
11.18
9.74
8.15
6.62
5.31
4.32
3.66
3.20
2.80
2.28
1.50
0.36
-1.15
-2.95
-4.83
-6.55
-7.94
-9.02
-9.96
-11.06
-12.51
-14.27
-16.11
-17.78
-19.19
-20.58
-22.37
-24.87
-27.94
-30.84
-32.41
-31.58
-27.85
-21.54
-13.73
-5.84
0.89
5.77
8.78
10.36
11.06
11.38
11.55
11.68
11.79
11.99
12.43
13.25
14.49
16.01
17.48
18.58
19.10
19.10
18.83
18.66
18.80
19.22
19.64
19.70
19.09
17.79
16.01
13.99
11.92
9.84
7.69
5.56
3.67
2.36
1.81
1.95
2.28
2.23
1.36
-0.38
-2.64
-4.88
-6.73
-8.17
-9.48
-11.08
-13.26
-15.96
-18.95
-21.86
-24.48
-26.78
-28.91
-30.99
-32.96
-34.56
-35.33
-34.80
-32.67
-28.90
-23.77
-17.72
-11.28
-4.97
0.77
5.58
9.17
11.41
12.36
12.27
11.55
10.66
9.96
9.72
10.00
10.73
11.71
12.71
13.54
14.16
14.67
15.23
15.96
16.88
17.84
18.60
18.93
18.72
17.96
16.79
15.35
13.79
12.22
10.72
9.26
7.85
6.47
5.20
4.25
3.76
3.76
3.96
3.93
3.27
1.95
0.27
-1.23
-2.14
-2.53
-2.80
-3.57
-5.23
-7.64
-10.26
-12.42
-13.68
-14.13
-14.25
-14.69
-15.98
-18.30
-21.41
-24.78
-27.62
-29.17
-28.80
-26.23
-21.55
-15.28
-8.25
-1.46
4.16
8.05
10.04
10.45
9.92
9.11
8.49
8.25
8.33
8.57
8.85
9.21
9.73
10.44
11.26
11.96
12.38
12.49
12.42
12.40
12.55
12.85
13.13
13.16
12.80
12.02
10.91
9.60
8.22
6.84
5.40
3.80
1.97
-0.04
-2.01
-3.63
-4.66
-5.07
-5.06
-5.03
-5.29
-5.94
-6.92
-8.05
-9.27
-10.65
-12.38
-14.57
-17.22
-20.15
-23.05
-25.62
-27.43
-28.07
-27.10
-24.24
-19.52
-13.38
-6.58
0.02
5.75
10.20
13.20
14.77
14.95
13.92
12.05
9.88
7.97
6.75
6.30
6.47
6.97
7.60
8.39
9.42
10.73
12.08
13.08
13.37
12.78
11.49
9.90
8.39
7.23
6.44
5.91
5.47
4.99
4.41
3.76
3.03
2.20
1.16
-0.20
-1.93
-3.97
-6.12
-8.16
-9.91
-11.32
-12.47
-13.54
-14.71
-16.14
-17.91
-20.03
-22.47
-25.08
-27.63
-29.76
-31.05
-31.10
-29.58
-26.39
-21.66
-15.83
-9.56
-3.65
1.30
4.96
7.39
8.89
9.76
10.21
10.27
9.98
9.46
9.03
9.07
9.82
11.25
12.97
14.49
15.40
15.58
15.26
14.88
14.83
15.29
16.15
17.08
17.68
17.56
16.56
14.70
12.18
9.31
6.47
4.00
2.14
0.95
0.34
0.08
-0.15
-0.61
-1.51
-3.00
-5.15
-7.91
-11.12
-14.46
-17.54
-20.07
-21.95
-23.34
-24.63
-26.25
-28.51
-31.42
-34.73
-37.86
-40.06
-40.59
-38.86
-34.71
-28.50
-21.08
-13.51
-6.74
-1.29
2.81
5.90
8.36
10.39
11.95
12.90
13.24
13.14
13.02
13.27
14.05
15.25
16.56
17.65
18.34
18.68
18.78
18.85
18.99
19.28
19.73
20.22
20.48
20.18
19.02
16.93
14.16
11.22
8.62
6.64
5.24
4.11
2.90
1.42
-0.34
-2.27
-4.34
-6.55
-8.90
-11.34
-13.62
-15.54
-16.98
-18.06
-19.11
-20.60
-22.95
-26.30
-30.44
-34.61
-37.68
-38.46
-36.10
-30.48
-22.36
-13.09
-4.16
3.35
9.10
13.36
16.63
19.26
21.22
22.23
22.13
21.05
19.51
18.18
17.58
17.85
18.81
20.03
21.18
22.12
22.92
23.64
24.28
24.58
24.22
23.00
20.96
18.52
16.21
14.47
13.35
12.53
11.44
9.71
7.33
4.68
2.23
0.31
-1.24
-2.87
-5.10
-8.09
-11.60
-15.11
-18.07
-20.22
-21.69
-22.88
-24.27
-26.31
-29.27
-33.26
-38.14
-43.41
-48.20
-51.37
-51.82
-48.85
-42.46
-33.31
-22.57
-11.53
-1.30
7.40
14.21
19.06
22.11
23.71
24.24
24.18
23.90
23.65
23.54
23.59
23.79
24.14
24.62
25.22
25.96
26.89
28.07
29.46
30.91
32.11
32.74
32.56
31.59
29.99
27.99
25.82
23.58
21.32
19.10
16.97
14.99
13.09
11.13
8.99
6.69
4.45
2.50
0.95
-0.41
-2.01
-4.30
-7.47
-11.30
-15.28
-18.86
-21.66
-23.67
-25.20
-26.75
-28.81
-31.77
-35.79
-40.69
-45.87
-50.26
-52.56
-51.57
-46.72
-38.30
-27.50
-15.88
-4.96
4.33
11.74
17.60
22.31
26.11
28.94
30.62
31.11
30.63
29.70
28.83
28.40
28.52
29.07
29.81
30.57
31.20
31.68
32.02
32.24
32.33
32.18
31.62
30.46
28.60
26.14
23.40
20.81
18.71
17.15
15.84
14.32
12.13
9.07
5.34
1.47
-1.88
-4.23
-5.44
-5.83
-6.03
-6.66
-8.08
-10.25
-12.72
-14.99
-16.80
-18.24
-19.68
-21.47
-23.82
-26.67
-29.90
-33.37
-37.00
-40.59
-43.66
-45.40
-44.86
-41.26
-34.41
-24.89
-13.88
-2.87
6.80
14.32
19.45
22.41
23.59
23.40
22.21
20.37
18.33
16.58
15.62
15.68
16.67
18.18
19.68
20.85
21.65
22.31
23.05
23.91
24.59
24.66
23.80
22.01
19.58
16.93
14.39
12.11
10.06
8.16
6.43
4.85
3.33
1.60
-0.65
-3.54
-6.89
-10.20
-12.97
-14.96
-16.36
-17.58
-19.05
-21.04
-23.56
-26.53
-29.84
-33.41
-36.98
-39.99
-41.54
-40.73
-36.96
-30.30
-21.52
-11.87
-2.69
5.03
10.82
14.76
17.19
18.53
19.14
19.18
18.81
18.18
17.52
17.07
17.05
17.56
18.57
19.98
21.62
23.32
24.87
26.07
26.72
26.64
25.76
24.08
21.68
18.74
15.61
12.67
10.28
8.55
7.35
6.33
5.15
3.69
2.04
0.41
-1.09
-2.61
-4.41
-6.75
-9.65
-12.87
-16.08
-19.03
-21.63
-24.00
-26.29
-28.66
-31.30
-34.36
-37.86
-41.53
-44.68
-46.32
-45.54
-41.91
-35.70
-27.81
-19.36
-11.26
-4.01
2.24
7.53
11.77
14.78
16.42
16.80
16.31
15.55
15.06
15.13
15.77
16.76
17.83
18.77
19.50
20.06
20.54
20.99
21.40
21.65
21.60
21.09
20.02
18.38
16.24
13.75
11.13
8.55
6.15
3.99
2.10
0.47
-0.86
-1.85
-2.47
-2.75
-2.84
-2.99
-3.49
-4.52
-6.14
-8.19
-10.45
-12.71
-14.85
-16.87
-18.83
-20.82
-22.91
-25.26
-27.96
-30.98
-33.95
-36.16
-36.74
-35.01
-30.81
-24.58
-17.24
-9.82
-3.14
2.32
6.45
9.31
11.15
12.24
12.90
13.33
13.68
13.97
14.20
14.47
14.95
15.77
16.85
17.87
18.44
18.38
17.81
17.11
16.72
16.81
17.25
17.66
17.71
17.22
16.22
14.83
13.18
11.34
9.34
7.22
5.05
2.92
0.93
-0.88
-2.53
-4.08
-5.62
-7.26
-9.00
-10.80
-12.53
-14.04
-15.34
-16.62
-18.21
-20.47
-23.56
-27.31
-31.13
-34.18
-35.55
-34.62
-31.21
-25.67
-18.74
-11.30
-4.17
2.09
7.16
11.00
13.61
15.06
15.49
15.10
14.29
13.56
13.34
13.82
14.86
15.98
16.66
16.63
16.00
15.25
14.91
15.30
16.33
17.63
18.73
19.33
19.37
18.88
17.94
16.53
14.65
12.44
10.15
8.09
6.50
5.39
4.50
3.57
2.39
0.91
-0.73
-2.34
-3.78
-5.00
-6.10
-7.25
-8.59
-10.20
-12.09
-14.14
-16.18
-18.01
-19.56
-20.91
-22.35
-24.21
-26.71
-29.79
-32.99
-35.60
-36.85
-36.19
-33.52
-29.16
-23.65
-17.63
-11.63
-6.04
-1.15
2.83
5.84
7.93
9.35
10.38
11.28
12.19
13.09
13.88
14.50
14.99
15.48
16.09
16.87
17.70
18.43
18.89
19.02
18.88
18.60
18.27
17.91
17.45
16.79
15.93
14.91
13.78
12.57
11.24
9.76
8.07
6.21
4.28
2.47
0.95
-0.20
-1.01
-1.63
-2.27
-3.07
-4.01
-4.91
-5.58
-5.92
-6.05
-6.23
-6.70
-7.51
-8.50
-9.43
-10.19
-10.86
-11.78
-13.17
-15.03
-17.19
-19.40
-21.55
-23.75
-26.20
-28.90
-31.51
-33.29
-33.39
-31.18
-26.59
-20.22
-13.22
-6.82
-1.99
0.93
2.21
2.53
2.62
2.93
3.57
4.34
4.98
5.41
5.76
6.32
7.27
8.57
10.03
11.36
12.39
13.16
13.84
14.55
15.26
15.77
15.77
15.10
13.84
12.29
10.81
9.60
8.69
8.01
7.49
7.21
7.19
7.29
7.18
6.48
5.02
3.06
1.16
-0.05
-0.31
0.11
0.56
0.37
-0.81
-2.79
-5.08
-7.20
-8.94
-10.40
-11.81
-13.38
-15.10
-16.98
-19.03
-21.35
-23.99
-26.77
-29.24
-30.66
-30.29
-27.72
-23.05
-16.88
-10.11
-3.64
1.90
6.18
9.11
10.74
11.18
10.67
9.54
8.18
6.97
6.18
5.93
6.29
7.25
8.78
10.72
12.75
14.44
15.40
15.49
14.86
13.95
13.18
12.77
12.58
12.25
11.45
10.13
8.61
7.38
6.80
6.86
7.16
7.11
6.26
4.54
2.31
0.06
