1496216762.00
64.000000
-0.00
-0.00
-0.00
-0.00
-0.00
-0.00
-0.00
-0.00
-0.00
-0.00
0.00
0.01
0.01
-0.00
-0.03
-0.05
-0.05
0.00
0.13
0.36
0.66
1.01
1.37
1.72
2.06
2.40
2.79
3.24
3.80
4.42
5.06
5.66
6.20
6.68
7.15
7.68
8.31
9.14
10.09
11.04
11.88
12.56
13.14
13.76
14.65
15.96
17.91
20.32
22.90
25.38
27.58
29.57
31.68
34.32
37.81
42.54
48.15
54.10
59.83
64.97
69.58
74.14
79.34
85.71
93.76
103.00
112.62
121.73
129.77
136.75
143.30
150.75
157.77
166.64
177.95
191.79
206.97
220.57
228.25
225.36
208.53
176.87
132.76
80.05
23.07
-34.94
-92.44
-149.16
-205.23
-260.37
-313.74
-363.87
-409.83
-450.91
-486.50
-515.74
-537.23
-549.22
-549.96
-538.37
-514.21
-478.67
-433.88
-382.45
-327.02
-269.84
-212.63
-156.66
-102.95
-52.37
-5.90
35.58
71.43
101.35
125.50
144.38
158.69
169.15
176.37
180.75
182.57
182.07
179.51
175.23
169.65
163.18
156.15
148.81
141.30
133.69
126.02
118.33
110.69
103.16
95.80
88.68
81.83
75.25
68.95
62.95
57.25
51.86
46.78
42.03
37.59
33.45
29.61
26.07
22.81
19.83
17.11
14.67
12.48
10.53
8.83
7.36
6.09
5.01
4.07
3.25
2.54
1.92
1.40
0.98
0.67
0.45
0.29
0.15
0.02
-0.13
-0.29
-0.43
-0.52
-0.55
-0.52
-0.48
-0.47
-0.53
-0.68
-0.89
-1.08
-1.19
-1.18
-1.07
-0.94
-0.92
-1.11
-1.54
-2.12
-2.68
-3.05
-3.11
-2.91
-2.65
-2.60
-2.97
-3.82
-4.99
-6.13
-6.89
-7.06
-6.71
-6.18
-5.96
-6.42
-7.68
-9.47
-11.24
-12.46
-12.82
-12.37
-11.52
-10.81
-10.70
-11.54
-13.47
-16.40
-19.81
-22.58
-23.15
-19.96
-12.19
-0.38
13.46
26.56
36.56
42.39
44.55
44.53
43.88
43.50
43.35
42.86
41.57
39.41
36.67
33.73
30.82
27.65
23.87
19.21
13.62
7.43
1.19
-4.41
-8.73
-11.43
-12.67
-13.00
-13.24
-13.96
-15.32
-16.93
-18.12
-18.32
-17.40
-15.75
-14.04
-12.92
-12.72
-13.38
-14.60
-15.92
-16.81
-16.69
-14.95
-11.24
-5.73
0.81
7.12
11.96
14.58
14.98
13.79
11.84
9.73
7.59
5.26
2.61
-0.24
-2.85
-4.69
-5.37
-4.91
-3.70
-2.25
-0.98
-0.09
0.50
0.99
1.59
2.29
2.91
3.02
2.20
0.20
-2.93
-6.85
-11.10
-15.24
-19.01
-22.05
-24.32
-26.02
-27.53
-29.34
-31.78
-34.74
-37.50
-38.70
-36.72
-30.40
-19.64
-5.63
9.42
22.97
33.02
38.59
39.80
37.50
32.73
26.45
19.41
12.28
5.60
-0.23
-5.15
-9.43
-13.58
-18.04
-22.95
-28.11
-33.09
-37.43
-40.84
-43.30
-44.96
-46.11
-47.11
-48.30
-49.92
-52.02
-54.48
-56.94
-59.11
-60.97
-62.95
-65.67
-69.55
-74.30
-78.61
-80.41
-77.58
-68.90
-54.66
-36.59
-17.39
0.36
14.99
26.02
33.80
39.01
42.02
42.83
41.33
37.70
32.69
27.47
23.17
20.49
19.38
19.30
19.44
19.16
18.09
16.13
13.29
9.58
5.03
-0.23
-5.97
-11.87
-17.72
-23.53
-29.57
-36.36
-44.37
-53.70
-63.76
-73.09
-79.49
-80.64
-74.87
-61.85
-42.91
-20.65
1.87
22.07
38.40
50.49
58.71
63.77
66.34
66.95
66.05
64.04
61.28
58.02
54.37
50.38
46.05
41.51
36.89
32.37
28.01
23.78
19.58
15.30
10.95
6.58
2.33
-1.63
-5.04
-7.63
-9.24
-9.93
-10.06
-10.23
-10.97
-12.33
-13.60
-13.24
-9.32
-0.26
14.38
33.58
55.00
75.74
93.24
106.04
113.84
117.31
117.48
115.36
111.68
107.04
101.91
96.72
91.76
87.06
82.46
77.65
72.38
66.68
60.80
55.16
50.18
46.09
42.89
40.35
38.12
35.84
33.24
30.17
26.60
22.64
18.52
14.55
11.14
8.53
6.69
5.28
3.59
0.93
-3.12
-8.50
-14.70
-21.04
-26.91
-32.07
-36.61
-40.94
-45.64
-51.34
-58.55
-67.41
-77.43
-87.28
-94.85
-97.77
-94.12
-83.16
-65.74
-44.22
-21.71
-1.24
15.05
26.37
33.13
36.41
37.52
37.44
36.78
35.88
34.95
34.17
33.65
33.33
33.03
32.55
31.87
31.27
31.22
32.05
33.75
35.74
37.00
36.52
33.67
28.53
21.81
14.57
7.71
1.59
-4.08
-10.02
-16.92
-25.02
-33.91
-42.63
-50.19
-55.95
-59.87
-62.49
-64.54
-66.70
-69.28
-72.31
-75.42
-77.93
-78.81
-76.85
-70.97
-60.67
-46.39
-29.57
-12.27
3.38
15.78
24.19
28.71
29.97
28.88
26.28
22.92
19.40
16.23
13.85
12.59
12.54
13.59
15.41
17.51
19.38
20.70
21.36
21.48
21.18
20.57
19.60
18.20
16.37
14.25
12.13
10.34
9.10
8.42
8.00
7.38
6.09
3.99
1.31
-1.35
-3.38
-4.54
-5.10
-5.83
-7.65
-11.10
-16.03
-21.52
-26.06
-28.07
-26.33
-20.43
-10.89
0.99
13.41
24.58
33.06
38.14
39.76
38.38
34.71
29.60
23.93
18.50
14.11
11.30
10.28
10.86
12.49
14.44
16.04
16.90
16.94
16.30
15.27
14.06
12.77
11.40
9.86
7.99
5.62
2.66
-0.88
-4.85
-8.97
-12.98
-16.66
-19.94
-22.96
-25.94
-29.14
-32.80
-37.07
-41.89
-46.98
-51.67
-54.87
-55.34
-52.12
-44.89
-34.25
-21.55
-8.44
3.69
14.05
22.39
28.75
33.11
35.24
34.89
32.09
27.44
22.03
17.12
13.68
12.10
12.15
13.12
14.20
14.86
14.89
14.47
13.91
13.49
13.23
12.93
12.25
10.93
8.96
6.61
4.33
2.53
1.41
0.93
0.80
0.68
0.20
-0.98
-3.04
-5.90
-8.87
-10.65
-9.49
-3.63
8.01
25.27
46.61
69.45
90.86
108.29
120.08
125.60
125.23
120.12
111.85
102.14
92.54
84.27
78.17
74.61
73.45
73.79
74.02
71.90
65.24
52.69
34.43
12.36
-10.46
-30.89
-46.78
-57.59
-64.17
-68.13
-70.94
-73.55
-76.21
-78.75
-80.96
-82.78
-84.39
-86.15
-88.41
-91.34
-94.69
-97.79
-99.77
-99.76
-97.31
-92.55
-86.09
-78.75
-71.16
-63.70
-56.41
-49.32
-42.59
-36.54
-31.57
-27.92
-25.58
-24.32
-23.71
-23.31
-22.82
-22.09
-21.07
-19.79
-18.32
-16.73
-15.14
-13.75
-12.76
-12.32
-12.32
-12.48
-12.42
-11.95
-11.30
-11.08
-11.94
-14.15
-17.35
-20.73
-23.48
-25.27
-26.47
-27.80
-29.92
-32.96
-36.53
-39.99
-42.90
-45.26
-47.29
-49.11
-50.43
-50.64
-49.07
-45.46
-40.09
-33.78
-27.53
-22.24
-18.57
-16.78
-16.84
-18.43
-20.94
-23.65
-25.86
-27.07
-27.21
-26.57
-25.67
-25.06
-25.14
-26.01
-27.54
-29.47
-31.46
-33.22
-34.65
-35.78
-36.72
-37.51
-38.01
-37.92
-36.97
-35.15
-32.90
-30.97
-30.08
-30.60
-32.33
-34.65
-36.92
-38.86
-40.68
-43.02
-46.54
-51.69
-58.59
-67.06
-76.65
-86.52
-95.23
-100.82
-101.14
-94.73
-81.47
-62.91
-41.76
-20.95
-2.69
12.12
23.66
32.58
39.39
44.23
46.96
47.59
46.47
44.16
41.27
38.27
35.46
33.06
31.22
29.94
29.06
28.20
26.84
24.54
21.12
16.65
11.44
5.86
0.30
-4.99
-9.88
-14.35
-18.49
-22.43
-26.31
-30.12
-33.62
-36.36
-37.77
-37.44
-35.48
-32.62
-30.14
-29.49
-31.64
-36.61
-43.13
-48.78
-50.58
-45.69
-32.31
-10.21
19.11
52.80
87.27
119.10
145.68
165.64
178.73
185.50
186.87
183.88
177.54
168.91
159.04
148.82
138.88
129.44
120.47
111.90
103.74
96.18
89.40
83.40
77.90
72.45
66.49
59.58
51.58
42.60
32.99
23.25
13.81
4.95
-3.33
-11.28
-19.16
-26.99
-34.43
-40.87
-45.81
-49.14
-51.45
-53.91
-57.89
-64.51
-74.18
-86.29
-99.18
-110.27
-116.61
-115.60
-105.79
-87.44
-62.54
-34.32
-6.22
19.03
39.98
56.45
69.03
78.52
85.46
90.04
92.30
92.38
90.68
87.80
84.48
81.37
78.93
77.38
76.73
76.81
77.35
78.10
78.78
79.13
78.78
77.38
74.59
70.31
64.77
58.58
52.50
47.18
42.93
39.57
36.54
33.23
29.25
24.66
19.90
15.50
11.82
8.80
5.92
2.52
-1.94
-7.55
-13.90
-20.16
-25.40
-28.92
-30.43
-30.13
-28.55
-26.38
-24.22
-22.37
-20.94
-19.93
-19.36
-19.32
-20.00
-21.41
-23.30
-25.17
-26.43
-26.70
-25.93
-24.44
-22.67
-20.90
-19.03
-16.74
-13.72
-9.92
-5.76
-1.90
1.11
3.14
4.50
5.85
7.75
10.36
13.36
16.02
17.64
17.84
16.73
14.83
12.97
11.98
12.49
14.77
18.50
22.88
26.61
28.26
26.50
20.61
10.69
-2.15
-15.98
-28.47
-37.44
-41.49
-40.24
-34.29
-24.92
-13.64
-1.85
9.33
19.03
26.57
31.40
33.24
32.22
28.90
24.24
19.32
15.03
11.86
9.90
8.93
8.64
8.82
9.32
10.07
10.90
11.56
11.60
10.62
8.35
4.82
0.38
-4.36
-8.72
-12.13
-14.27
-15.12
-14.92
-14.14
-13.31
-12.93
-13.36
-14.70
-16.80
-19.32
-21.89
-24.26
-26.42
-28.63
-31.42
-35.28
-40.51
-46.92
-53.80
-59.84
-63.55
-63.68
-59.77
-52.31
-42.63
-32.40
-23.04
-15.30
-9.24
-4.53
-0.78
2.14
4.18
5.24
5.40
5.03
4.63
4.65
5.17
5.90
6.34
6.14
5.30
4.27
3.71
4.07
5.33
6.99
8.25
8.43
7.26
4.95
2.03
-0.92
-3.57
-5.88
-8.03
-10.19
-12.37
-14.38
-15.90
-16.69
-16.74
-16.31
-15.84
-15.81
-16.49
-17.94
-19.96
-22.29
-24.54
-26.26
-26.92
-25.98
-23.10
-18.33
-12.23
-5.74
0.23
5.07
8.72
11.50
13.92
16.32
18.73
20.92
22.57
23.51
23.79
23.73
23.81
24.57
26.31
28.95
31.95
34.40
35.38
34.28
31.05
26.19
20.55
14.98
10.12
6.35
3.80
2.39
1.85
1.80
1.68
0.91
-0.95
-4.15
-8.63
-14.03
-19.81
-25.39
-30.37
-34.73
-38.76
-42.85
-47.17
-51.37
-54.59
-55.78
-54.18
-49.75
-43.12
-35.35
-27.45
-20.07
-13.43
-7.61
-2.67
1.16
3.65
4.78
4.74
3.98
2.90
1.92
1.29
1.24
1.98
3.68
6.21
9.16
11.83
13.47
13.59
12.08
9.23
5.64
1.89
-1.47
-4.15
-6.04
-7.27
-8.18
-9.17
-10.62
-12.61
-14.97
-17.41
-19.75
-22.06
-24.75
-28.28
-32.88
-38.28
-43.61
-47.64
-49.08
-47.06
-41.39
-32.69
-22.18
-11.40
-1.66
6.19
11.88
15.67
18.00
19.36
20.08
20.39
20.37
20.06
19.37
18.19
16.43
14.10
11.39
8.65
6.29
4.64
3.79
3.61
3.69
3.57
2.92
1.65
-0.04
-1.75
-3.19
-4.38
-5.71
-7.70
-10.72
-14.63
-18.84
-22.57
-25.25
-26.85
-27.92
-29.24
-31.52
-35.17
-40.16
-46.13
-52.37
-57.91
-61.50
-61.89
-58.15
-50.01
-38.14
-23.96
-9.25
4.38
15.88
24.89
31.60
36.46
39.87
42.11
43.28
43.43
42.68
41.29
39.56
37.87
36.50
35.57
35.09
35.01
35.19
35.48
35.64
35.39
34.47
32.74
30.17
26.83
22.83
18.18
12.92
7.18
1.22
-4.65
-10.09
-15.09
-19.85
-24.70
-29.91
-35.58
-41.61
-47.95
-54.68
-61.87
-69.31
-76.12
-80.67
-81.02
-75.64
-64.23
-48.11
-29.93
-12.81
0.68
9.36
13.50
14.42
13.74
12.73
12.12
12.18
13.00
14.72
17.51
21.43
26.13
30.92
34.83
37.03
37.11
35.29
32.24
28.82
25.62
22.78
20.05
16.99
13.31
9.08
4.68
0.67
-2.49
-4.59
-5.66
-5.95
-5.84
-5.73
-6.00
-6.89
-8.49
-10.73
-13.41
-16.39
-19.66
-23.41
-27.96
-33.52
-40.02
-46.89
-53.09
-57.25
-58.02
-54.46
-46.38
-34.49
-20.27
-5.51
8.13
19.56
28.35
34.58
38.55
40.56
40.76
39.37
36.75
33.58
30.74
28.98
28.67
29.63
31.30
32.93
34.01
34.47
34.48
34.29
34.01
33.43
32.21
30.13
27.28
24.05
20.90
18.13
15.62
12.94
9.59
5.31
0.26
-5.05
-9.92
-13.86
-16.77
-18.96
-21.11
-23.87
-27.76
-32.94
-39.16
-45.80
-51.85
-55.95
-56.64
-52.74
-43.90
-30.90
-15.56
-0.19
13.20
23.54
30.79
35.61
38.71
40.51
41.02
40.24
38.40
36.04
33.87
32.37
31.66
31.57
31.75
31.96
32.07
32.02
31.77
31.22
30.26
28.80
26.81
24.26
21.18
17.62
13.65
9.43
5.12
0.92
-3.03
-6.68
-10.03
-13.15
-16.22
-19.41
-22.95
-27.07
-31.97
-37.73
-44.11
-50.48
-55.73
-58.38
-57.06
-50.92
-40.12
-25.92
-10.37
4.27
16.33
25.07
30.77
34.26
36.39
37.66
38.11
37.64
36.32
34.51
32.83
31.75
31.37
31.32
30.91
29.56
27.04
23.65
20.07
16.98
14.74
13.24
12.03
10.65
8.78
6.38
3.52
0.24
-3.56
-8.02
-13.12
-18.56
-23.89
-28.69
-32.91
-36.89
-41.31
-46.80
-53.56
-61.17
-68.45
-73.69
-75.06
-71.14
-61.45
-46.71
-28.69
-9.73
7.91
22.59
33.62
41.09
45.56
47.65
47.84
46.40
43.54
39.64
35.23
30.94
27.35
24.75
23.02
21.81
20.75
19.71
18.83
18.34
18.35
18.58
18.55
17.77
16.09
13.70
10.99
8.31
5.66
2.84
-0.37
-3.99
-7.79
-11.47
-14.85
-18.10
-21.64
-26.03
-31.70
-38.79
-46.94
-55.16
-61.87
-65.20
-63.51
-56.01
-43.25
-26.98
-9.67
6.28
19.32
28.86
35.24
39.18
41.40
42.37
42.36
41.53
40.03
38.09
35.94
33.80
31.79
29.91
28.00
25.90
23.60
21.30
19.33
17.96
17.16
16.52
15.41
13.40
10.50
7.19
4.13
1.74
-0.10
-1.97
-4.60
-8.38
-13.14
-18.26
-22.99
-26.85
-29.87
-32.49
-35.29
-38.73
-43.06
-48.25
-54.11
-60.15
-65.55
-69.11
-69.52
-65.82
-57.80
-46.23
-32.72
-19.05
-6.60
4.04
13.01
20.78
27.69
33.62
38.16
40.91
41.79
41.19
39.78
38.24
36.94
35.92
35.06
34.24
33.52
33.00
32.70
32.40
31.70
30.27
27.98
25.04
21.78
18.45
15.11
11.58
7.69
3.38
-1.21
-5.80
-10.09
-13.88
-17.16
-20.11
-23.02
-26.31
-30.34
-35.27
-40.92
-46.47
-50.69
-52.03
-49.25
-41.79
-30.16
-15.77
-0.60
13.41
24.93
33.36
38.79
41.64
42.37
41.34
38.87
35.39
31.53
27.97
25.28
23.63
22.76
22.10
21.09
19.46
17.30
15.02
13.02
11.52
10.35
9.12
7.27
4.40
0.38
-4.59
-9.99
-15.16
-19.53
-22.80
-25.03
-26.71
-28.56
-31.33
-35.58
-41.45
-48.53
-55.89
-62.06
-65.46
-64.68
-59.00
-48.65
-34.79
-19.24
-3.91
9.64
20.55
28.62
34.10
37.40
38.90
38.93
37.85
36.10
34.16
32.46
31.20
30.28
29.41
28.20
26.45
24.16
21.57
18.97
16.55
14.35
12.21
9.84
6.98
3.46
-0.68
-5.20
-9.73
-13.89
-17.41
-20.35
-23.03
-26.05
-30.02
-35.40
-42.24
-50.00
-57.52
-63.22
-65.44
-62.93
-55.29
-43.14
-28.00
-11.87
3.31
16.13
25.92
32.72
37.06
39.59
40.83
41.10
40.57
39.41
37.93
36.55
35.55
34.97
34.44
33.39
31.28
27.98
23.82
19.55
15.91
13.30
11.63
10.27
8.45
5.57
1.44
-3.62
-8.98
-14.04
-18.44
-22.21
-25.68
-29.31
-33.47
-38.29
-43.67
-49.38
-54.98
-59.79
-62.80
-62.78
-58.53
-49.47
-36.06
-19.87
-3.16
11.90
23.86
32.35
37.84
41.13
42.86
43.33
42.64
40.93
38.63
36.21
34.15
32.62
31.53
30.63
29.65
28.38
26.73
24.72
22.41
19.96
17.50
15.07
12.59
9.91
6.85
3.30
-0.76
-5.24
-9.97
-14.63
-18.92
-22.55
-25.40
-27.67
-29.89
-32.74
-36.84
-42.47
-49.36
-56.74
-63.33
-67.61
-68.07
-63.66
-54.14
-40.24
-23.61
-6.32
9.65
22.92
32.86
39.55
43.42
45.13
45.22
44.26
42.69
40.86
39.09
37.51
36.22
35.21
34.40
33.63
32.68
31.30
29.33
26.83
23.96
20.97
17.98
15.00
11.89
8.63
5.28
1.94
-1.35
-4.80
-8.71
-13.33
-18.63
-24.24
-29.54
-34.01
-37.50
-40.42
-43.51
-47.55
-52.97
-59.59
-66.55
-72.39
-75.36
-73.85
-66.90
-54.54
-37.97
-19.23
-0.68
15.69
28.71
38.10
44.25
47.86
49.53
49.66
48.56
46.53
44.03
41.61
39.70
38.47
37.75
37.10
36.08
34.52
32.62
30.80
29.53
28.86
28.47
27.68
25.83
22.56
18.04
12.80
7.62
3.06
-0.67
-3.76
-6.73
-10.11
-14.22
-18.97
-23.89
-28.38
-32.02
-34.79
-37.07
-39.50
-42.67
-46.97
-52.48
-58.97
-65.83
-71.89
-75.52
-74.90
-68.66
-56.50
-39.50
-19.87
-0.35
16.80
30.26
39.77
45.80
48.98
49.91
49.02
46.81
43.87
40.91
38.50
36.92
36.09
35.63
35.12
34.26
33.02
31.57
30.22
29.15
28.33
27.56
26.45
24.64
21.93
18.36
14.18
9.80
5.68
2.25
-0.32
-2.20
-3.86
-5.89
-8.70
-12.33
-16.39
-20.28
-23.49
-25.85
-27.68
-29.55
-32.13
-35.94
-41.11
-47.39
-53.99
-59.69
-62.94
-62.23
-56.64
-46.18
-32.08
-16.32
-1.08
11.95
22.02
29.21
34.11
37.32
39.11
39.47
38.37
36.01
32.92
29.77
27.11
25.11
23.57
22.14
20.62
19.09
17.84
17.16
17.09
17.32
17.35
16.66
15.05
12.67
9.95
7.35
5.09
3.06
0.93
-1.57
-4.54
-7.83
-11.12
-14.20
-16.93
-19.32
-21.39
-23.17
-24.72
-26.26
-28.25
-31.21
-35.44
-40.74
-46.26
-50.65
-52.46
-50.65
-44.87
-35.54
-23.68
-10.63
2.28
13.87
23.30
30.02
33.82
34.84
33.49
30.43
26.48
22.49
19.18
16.95
15.79
15.27
14.77
13.76
12.00
9.73
7.47
5.74
4.74
4.20
3.58
2.30
0.12
-2.89
-6.32
-9.81
-13.13
-16.33
-19.56
-22.93
-26.34
-29.62
-32.72
-35.82
-39.44
-44.15
-50.15
-56.86
-62.82
-66.07
-64.70
-57.67
-45.27
-29.05
-11.45
5.08
18.73
28.65
34.92
38.17
39.15
38.48
36.64
33.99
30.99
28.17
25.95
24.55
23.83
23.41
22.84
21.84
20.40
18.78
17.32
16.16
15.20
14.01
12.10
9.13
5.04
0.11
-5.14
-10.13
-14.42
-17.83
-20.55
-23.03
-25.85
-29.62
-34.76
-41.37
-49.06
-57.01
-64.02
-68.71
-69.84
-66.50
-58.44
-46.15
-30.81
-14.14
2.03
16.18
27.40
35.47
40.69
43.55
44.49
43.80
41.74
38.67
35.15
31.80
29.12
27.26
26.08
25.26
24.47
23.53
22.48
21.41
20.44
19.58
18.75
17.78
16.46
14.47
11.57
7.68
2.97
-2.14
-7.13
-11.62
-15.49
-18.93
-22.27
-25.80
-29.72
-34.10
-39.00
-44.55
-50.78
-57.32
-63.19
-66.78
-66.34
-60.59
-49.39
-33.90
-16.21
1.26
16.60
28.72
37.45
43.14
46.26
47.13
45.98
43.07
38.95
34.43
30.40
27.57
26.23
26.21
26.92
27.71
28.02
27.62
26.59
25.17
23.65
22.15
20.58
18.68
16.07
12.42
7.59
1.82
-4.39
-10.34
-15.52
-19.79
-23.48
-27.23
-31.77
-37.56
-44.72
-53.00
-61.83
-70.25
-76.94
-80.26
-78.61
-71.00
-57.52
-39.51
-19.33
0.41
17.51
30.73
39.86
45.39
48.22
49.20
49.07
48.33
47.36
46.39
45.54
44.92
44.55
44.47
44.62
44.83
44.85
44.42
43.36
41.63
39.26
36.27
32.68
28.53
23.97
19.23
14.68
10.50
6.68
2.89
-1.37
-6.49
-12.58
-19.32
-26.06
-32.20
-37.38
-41.79
-46.03
-50.95
-57.18
-64.90
-73.55
-81.82
-87.89
-89.92
-86.55
-77.29
-62.86
-44.91
-25.62
-7.08
9.21
22.49
32.63
39.85
44.48
46.81
47.25
46.33
44.67
42.88
41.29
39.99
38.84
37.61
36.19
34.63
33.14
32.00
31.35
31.06
30.75
29.76
27.50
23.71
18.60
12.83
7.22
2.43
-1.35
-4.43
-7.50
-11.30
-16.31
-22.57
-29.69
-37.05
-43.99
-50.05
-55.13
-59.48
-63.71
-68.55
-74.68
-82.34
-91.06
-99.47
-105.52
-106.89
-101.83
-89.80
-71.78
-49.99
-27.15
-5.71
12.71
27.36
38.07
44.93
48.15
48.15
45.69
41.97
38.33
35.88
35.17
36.11
38.18
40.72
43.22
45.43
47.26
48.58
49.21
48.81
47.08
43.84
39.17
33.34
26.77
19.85
12.86
5.91
-1.03
-8.01
-15.06
-22.09
-28.85
-35.05
-40.48
-45.20
-49.65
-54.62
-61.01
-69.46
-79.87
-91.08
-100.94
-106.75
-106.09
-97.69
-81.82
-60.27
-35.75
-11.11
11.28
29.99
44.42
54.67
61.26
64.84
66.10
65.69
64.13
61.87
59.31
56.88
55.00
53.96
53.88
54.59
55.73
56.92
57.79
58.02
57.30
55.34
52.02
47.41
41.85
35.91
30.09
24.61
19.36
13.96
8.06
1.52
-5.54
-12.71
-19.60
-25.94
-31.77
-37.38
-43.28
-50.05
-58.14
-67.63
-77.89
-87.45
-94.15
-95.69
-90.25
-77.25
-57.62
-33.60
-8.12
16.08
37.02
53.82
66.50
75.53
81.45
84.67
85.49
84.36
81.92
78.99
76.34
74.51
73.63
73.50
73.73
73.89
73.64
72.72
70.94
68.17
64.36
59.57
54.02
47.97
41.62
35.01
28.01
20.39
12.05
3.06
-6.29
-15.59
-24.44
-32.62
-40.06
-46.76
-52.80
-58.30
-63.66
-69.52
-76.55
-84.97
-94.08
-102.09
-106.43
-104.59
-95.05
-77.99
-55.25
-29.79
-4.66
17.69
35.93
49.72
59.38
65.49
68.67
69.55
68.82
67.17
65.29
63.67
62.50
61.73
61.17
60.70
60.33
60.13
60.07
59.96
59.44
58.20
56.08
53.24
49.94
46.40
42.65
38.52
33.84
28.57
22.88
17.04
11.33
5.83
0.40
-5.20
-11.24
-17.87
-25.19
-33.19
-41.80
-50.74
-59.40
-66.74
-71.41
-72.07
-67.86
-58.77
-45.85
-30.89
-15.92
-2.63
8.10
16.22
22.18
26.51
29.55
31.43
32.25
32.24
31.81
31.38
31.15
30.98
30.51
29.36
27.35
24.63
21.57
18.59
16.01
13.96
12.38
11.14
10.06
8.92
7.46
5.44
2.74
-0.59
-4.33
-8.12
-11.73
-15.13
-18.54
-22.36
-26.98
-32.66
-39.49
-47.30
-55.65
-63.70
-70.17
-73.46
-72.07
-65.09
-52.77
-36.54
-18.72
-1.74
12.56
23.33
30.76
35.58
38.60
40.40
41.24
41.20
40.29
38.60
36.16
33.01
29.17
24.76
20.12
15.66
11.80
8.67
6.13
3.86
1.58
-0.78
-3.01
-4.90
-6.40
-7.79
-9.62
-12.42
-16.39
-21.23
-26.22
-30.48
-33.37
-34.80
-35.23
-35.51
-36.62
-39.35
-44.17
-50.93
-58.82
-66.21
-70.96
-70.87
-64.42
-51.50
-33.59
-13.50
5.62
21.16
31.83
37.74
39.91
39.63
37.94
35.40
32.25
28.64
24.80
21.01
17.61
14.82
12.71
11.28
10.43
9.98
9.75
9.49
9.01
8.22
7.18
6.02
4.78
3.28
1.17
-1.96
-6.20
-11.21
-16.30
-20.78
-24.27
-26.91
-29.33
-32.28
-36.31
-41.66
-48.11
-55.11
-61.78
-66.96
-69.29
-67.50
-60.77
-49.17
-33.80
-16.55
0.39
15.18
26.76
34.87
39.97
42.70
43.61
42.99
41.00
37.74
33.57
29.07
24.97
21.81
19.77
18.55
17.56
16.23
14.28
11.85
9.34
7.10
5.13
3.06
0.30
-3.68
-9.06
-15.54
-22.46
-29.03
-34.71
-39.31
-43.04
-46.34
-49.77
-53.81
-58.85
-65.12
-72.53
-80.51
-87.80
-92.56
-92.81
-87.02
-74.74
-56.91
-35.66
-13.65
6.67
23.62
36.52
45.50
51.16
54.25
55.42
55.13
53.74
51.59
48.98
46.26
43.76
41.62
39.81
38.09
36.17
33.85
31.07
27.95
24.66
21.28
17.80
14.11
10.08
5.71
0.99
-4.10
-9.70
-15.94
-22.85
-30.16
-37.41
-44.04
-49.76
-54.65
-59.27
-64.51
-71.25
-80.03
-90.54
-101.40
-110.31
-114.57
-111.88
-101.21
-83.27
-60.37
-35.66
-12.15
8.12
24.35
36.79
46.17
53.24
58.46
62.06
64.18
65.07
65.01
64.30
63.09
61.35
59.01
56.08
52.91
50.07
48.12
47.34
47.42
47.55
46.75
44.31
40.12
34.72
28.90
23.40
18.53
14.12
9.66
4.61
-1.32
-8.11
-15.42
-22.82
-29.90
-36.45
-42.50
-48.38
-54.61
-61.74
-70.04
-79.14
-87.74
-93.79
-94.95
-89.45
-76.76
-58.04
-35.78
-13.04
7.59
24.54
37.49
46.91
53.51
57.75
59.83
59.83
58.06
55.14
51.92
49.12
47.22
46.23
45.93
45.95
45.92
45.48
44.38
42.42
39.60
36.17
32.52
29.04
25.83
22.66
18.97
14.20
8.08
0.72
-7.30
-15.28
-22.56
-28.84
-34.16
-38.86
-43.50
-48.75
-55.25
-63.43
-73.22
-83.70
-93.06
-98.82
-98.55
-90.77
-75.56
-54.71
-31.16
-8.13
11.88
27.63
39.10
47.07
52.52
56.21
58.52
59.58
59.42
58.21
56.23
53.83
51.30
48.75
46.28
43.95
41.97
40.56
39.88
39.84
40.05
39.89
38.75
36.24
32.34
27.44
22.16
17.17
12.84
9.15
5.63
1.59
-3.49
-9.73
-16.70
-23.65
-29.83
-34.89
-39.03
-42.85
-47.11
-52.46
-59.28
-67.61
-77.01
-86.42
-94.13
-98.04
-96.25
-87.86
-73.36
-54.73
-34.70
-15.91
-0.13
12.05
20.96
27.32
31.79
34.73
36.29
36.60
35.88
34.41
32.56
30.60
28.81
27.38
26.42
25.96
25.90
26.06
26.09
25.74
24.78
23.16
20.92
18.23
15.23
12.00
8.57
4.89
0.93
-3.28
-7.59
-11.79
-15.62
-18.98
-21.95
-24.84
-28.05
-32.01
-37.03
-43.27
-50.63
-58.68
-66.47
-72.51
-74.88
-71.70
-61.76
-45.00
-22.76
2.52
28.05
51.45
71.26
87.05
99.12
108.04
114.36
118.57
121.16
122.80
124.31
126.51
129.90
134.46
139.62
144.50
148.31
150.62
151.45
151.03
149.57
147.09
143.33
138.09
131.32
123.22
114.11
104.25
93.66
82.17
69.60
55.98
41.75
27.67
14.79
4.27
-2.89
-6.07
-5.46
-2.20
1.66
3.71
1.88
-4.96
-16.91
-33.31
-53.37
-76.53
-102.54
-130.90
-160.33
-188.37
-211.83
-227.50
-233.33
-229.05
-216.14
-197.18
-174.97
-151.86
-129.61
-109.47
-92.31
-78.49
-67.40
-57.39
-45.93
-30.43
-9.32
17.32
47.70
78.88
107.65
131.15
147.39
155.40
155.34
148.53
137.16
123.72
110.19
97.39
84.90
71.59
56.36
38.88
19.83
0.67
-16.86
-31.23
-41.40
-46.88
-47.78
-44.92
-39.87
-34.89
-32.50
-34.83
-42.84
-55.87
-71.81
-87.70
-100.93
-109.95
-114.65
-115.85
-114.49
-110.85
-104.35
-93.92
-78.78
-58.91
-35.25
-9.30
17.15
42.35
64.59
82.20
93.75
98.49
96.62
89.21
77.53
62.33
43.41
19.98
-8.30
-40.29
-73.08
-102.70
-125.59
-139.86
-145.85
-145.48
-141.03
-133.96
-124.55
-112.37
-97.26
-79.94
-62.06
-45.40
-31.05
-18.90
-7.85
3.44
15.81
29.06
42.22
54.08
63.83
71.43
77.53
82.98
88.42
94.01
99.43
104.10
107.48
109.23
109.22
107.51
104.16
99.23
92.70
84.51
74.72
63.52
51.26
38.33
25.09
11.79
-1.49
-14.65
-27.70
-40.54
-52.95
-64.53
-74.75
-83.17
-89.81
-95.25
-100.61
-107.10
-115.44
-125.37
-135.62
-144.34
-149.94
-151.72
-150.26
-147.14
-144.32
-143.54
-145.77
-151.06
-158.75
-167.64
-176.27
-183.04
-186.35
-184.71
-177.10
-163.31
-144.16
-121.44
-97.56
-74.87
-55.22
-39.67
-28.57
-21.76
-18.70
-18.49
-19.85
-21.29
-21.50
-19.69
-15.91
-10.86
-5.50
-0.56
3.70
7.43
10.92
14.32
17.53
20.35
22.57
24.28
25.87
27.98
31.18
35.86
41.96
49.01
56.25
62.99
68.76
73.52
77.48
80.89
83.76
85.92
87.06
87.04
85.99
84.22
82.02
79.44
76.28
72.29
67.46
62.13
56.98
52.69
49.65
47.85
46.94
46.43
45.97
45.40
44.68
43.88
43.09
42.47
42.26
42.77
44.23
46.77
50.27
54.42
58.82
63.05
66.76
69.67
71.60
72.41
72.04
70.51
67.97
64.65
60.85
56.87
52.98
49.26
45.74
42.42
39.30
36.47
33.97
31.75
29.63
27.38
24.86
22.12
19.34
16.71
14.24
11.74
8.94
5.78
2.53
-0.23
-1.88
-2.09
-1.02
0.81
2.81
4.62
6.26
8.02
10.20
12.87
15.86
18.86
21.62
24.01
26.02
27.63
28.74
29.20
28.98
28.21
27.27
26.63
26.64
27.53
29.35
32.06
35.57
39.77
44.46
49.35
53.99
57.83
60.37
61.21
60.21
57.57
53.72
49.19
44.40
39.45
34.21
28.31
21.43
13.38
4.29
-5.52
-15.58
-25.32
-34.07
-41.14
-45.86
-47.81
-47.04
-44.12
-40.04
-35.87
-32.36
-29.78
-27.95
-26.45
-24.96
-23.41
-21.94
-20.76
-19.89
-19.13
-18.18
-16.82
-15.05
-13.03
-10.96
-9.03
-7.36
-6.13
-5.56
-5.87
-7.09
-8.99
-11.11
-12.91
-14.01
-14.34
-14.07
-13.45
-12.69
-11.75
-10.54
-8.98
-7.17
-5.38
-3.96
-3.27
-3.51
-4.68
-6.57
-8.82
-10.97
-12.61
-13.44
-13.26
-12.03
-9.79
-6.65
-2.73
1.83
6.79
11.87
16.65
20.72
23.69
25.30
25.40
23.92
20.89
16.46
11.00
5.03
-0.77
-5.78
-9.59
-12.14
-13.74
-14.95
-16.36
-18.38
-21.09
-24.16
-26.89
-28.50
-28.33
-26.15
-22.20
-17.18
-12.00
-7.51
-4.21
-2.20
-1.24
-0.92
-0.88
-0.95
-1.17
-1.73
-2.88
-4.82
-7.74
-11.75
-16.91
-23.21
-30.42
-37.99
-45.04
-50.54
-53.52
-53.42
-50.15
-44.16
-36.27
-27.47
-18.69
-10.65
-3.72
2.09
7.08
11.77
16.63
21.79
27.00
31.72
35.27
37.25
37.66
36.93
35.67
34.47
33.47
32.44
31.06
29.04
26.38
23.28
20.07
17.19
15.23
14.72
16.27
20.27
26.41
33.24
38.08
37.78
29.88
13.82
-9.03
-35.21
-60.24
-80.17
-92.79
-98.16
-97.83
-93.83
-87.69
-81.54
-77.09
-75.59
-77.66
-83.19
-91.35
-100.37
-108.00
-111.92
-112.58
-111.38
-109.86
-108.78
-107.96
-106.80
-104.32
-99.89
-93.00
-86.36
-82.79
-84.26
-91.40
-104.03
-122.05
-144.89
-171.74
-187.42
-181.27
-150.85
-104.55
-55.41
-13.91
13.86
26.02
21.03
3.94
-21.33
-48.92
-72.02
-84.59
-83.65
-70.89
-48.39
-22.33
1.08
12.93
9.40
-6.90
-29.62
-50.12
-66.44
-78.42
-86.13
-88.10
-86.08
-80.32
-70.98
-58.52
-43.80
-28.21
-12.25
3.80
20.42
37.54
55.74
75.43
96.82
120.18
145.54
173.25
202.57
231.38
255.71
271.49
275.49
266.64
246.53
218.73
187.89
157.96
131.41
109.03
90.86
76.39
64.91
55.53
47.17
39.00
30.59
22.19
14.76
9.68
8.21
10.75
16.68
24.50
32.34
38.57
42.27
43.26
42.00
39.18
35.41
31.10
26.55
22.05
17.91
14.45
11.88
10.16
9.01
8.10
7.13
6.02
4.79
3.50
2.14
0.53
-1.55
-4.31
-7.82
-12.03
-16.80
-21.94
-27.19
-32.22
-36.61
-39.97
-42.09
-43.06
-43.30
-43.41
-43.96
-45.16
-46.76
-47.95
-47.42
-43.68
-35.36
-21.78
-3.12
19.33
43.57
67.37
88.87
107.07
121.77
133.40
142.57
149.80
155.47
159.90
163.56
166.98
170.65
174.79
179.35
184.04
188.64
193.08
197.47
201.85
205.89
208.70
208.96
205.20
196.39
182.36
163.95
142.88
121.21
100.72
82.39
66.22
51.40
36.83
21.67
5.75
-10.61
-26.87
-42.82
-58.75
-75.43
-93.59
-113.46
-134.55
-155.71
-175.56
-192.95
-207.27
-218.52
-227.05
-233.39
-238.01
-241.35
-243.83
-245.78
-247.24
-247.90
-247.05
-243.92
-238.13
-230.09
-220.95
-212.24
-205.19
-200.16
-196.57
-193.14
-188.57
-181.97
-173.03
-161.72
-147.95
-131.51
-112.30
-90.86
-68.72
-48.19
-31.69
-20.77
-15.50
-14.46
-15.38
-16.04
-14.98
-11.80
-6.99
-1.53
3.39
6.64
7.32
5.11
0.50
-5.07
-9.51
-10.69
-7.14
1.48
14.24
29.40
45.03
59.57
72.11
82.26
89.93
95.05
97.57
97.55
95.36
91.70
87.51
83.64
80.62
78.49
76.96
75.58
74.02
72.15
69.95
67.47
64.69
61.58
58.18
54.54
50.72
46.66
42.25
37.31
31.79
25.84
19.80
14.04
8.80
4.05
-0.45
-5.05
-10.11
-15.85
-22.35
-29.44
-36.63
-43.02
-47.38
-48.42
-45.17
-37.39
-25.62
-11.12
4.53
19.85
33.66
45.21
54.17
60.52
64.54
66.68
67.48
67.38
66.67
65.48
63.86
61.91
59.83
57.86
56.24
55.10
54.44
54.11
53.95
53.72
53.21
52.18
50.51
48.21
45.48
42.74
40.36
38.61
37.41
36.41
35.08
32.98
29.96
26.09
21.64
16.82
11.67
6.01
-0.43
-7.88
-16.35
-25.52
-34.68
-42.72
-48.32
-50.21
-47.60
-40.45
-29.61
-16.63
-3.27
8.87
18.83
26.25
31.30
34.37
35.91
36.31
35.90
34.97
33.75
32.41
31.02
29.63
28.34
27.33
26.77
26.73
27.08
27.51
27.63
27.06
25.63
23.37
20.51
17.43
14.44
11.79
9.44
7.19
4.66
1.45
-2.66
-7.70
-13.46
-19.61
-25.83
-31.92
-37.88
-43.84
-50.02
-56.59
-63.42
-69.98
-75.27
-78.08
-77.24
-72.11
-62.76
-50.08
-35.48
-20.46
-6.25
6.48
17.61
27.29
35.72
42.90
48.68
52.89
55.53
56.89
57.41
57.53
57.49
57.28
56.70
55.61
53.94
51.80
49.39
46.87
44.40
42.03
39.70
37.26
34.51
31.16
27.08
22.33
17.25
12.37
8.15
4.78
2.04
-0.60
-3.86
-8.33
-14.30
-21.64
-29.84
-38.02
-45.08
-49.84
-51.27
-48.77
-42.43
-33.08
-22.16
-11.31
-1.90
5.35
10.34
13.42
15.01
15.40
14.64
12.80
10.12
7.15
4.61
3.07
2.73
3.36
4.38
5.20
5.45
5.09
4.37
3.65
3.15
2.93
2.82
2.52
1.80
0.57
-1.07
-2.85
-4.49
-5.76
-6.61
-7.22
-7.95
-9.27
-11.64
-15.38
-20.53
-26.68
-32.97
-38.22
-41.20
-40.90
-36.83
-29.21
-18.83
-6.94
5.07
15.89
24.58
30.62
34.00
35.07
34.34
32.29
29.35
25.77
21.79
17.67
13.70
10.14
7.10
4.57
2.42
0.52
-1.15
-2.49
-3.32
-3.52
-3.15
-2.51
-2.06
-2.29
-3.54
-5.87
-9.01
-12.47
-15.74
-18.41
-20.34
-21.68
-22.77
-24.05
-25.95
-28.70
-32.28
-36.31
-39.96
-42.16
-41.82
-38.17
-31.03
-20.83
-8.56
4.50
17.11
28.26
37.26
43.80
47.81
49.46
49.00
46.77
43.10
38.32
32.77
26.84
20.98
15.68
11.37
8.34
6.64
6.18
6.69
7.84
9.23
10.46
11.14
10.88
9.43
6.71
2.86
-1.82
-6.92
-12.07
-17.01
-21.64
-25.94
-29.89
-33.43
-36.45
-38.94
-41.09
-43.20
-45.57
-48.27
-50.94
-52.83
-53.01
-50.76
-45.85
-38.72
-30.29
-21.66
-13.83
-7.37
-2.43
1.19
3.86
5.98
7.80
9.46
11.01
12.53
14.21
16.30
19.05
22.56
26.68
31.00
35.01
38.22
40.32
41.24
41.11
40.13
38.42
35.98
32.76
28.70
23.92
18.70
13.46
8.61
4.42
0.96
-1.91
-4.43
-6.86
-9.40
-12.21
-15.44
-19.16
-23.33
-27.58
-31.18
-33.13
-32.45
-28.57
-21.57
-12.32
-2.14
7.55
15.76
22.03
26.53
29.67
31.86
33.27
33.85
33.46
32.03
29.65
26.54
22.99
19.28
15.60
12.02
8.59
5.39
2.61
0.50
-0.73
-1.01
-0.49
0.43
1.32
1.77
1.62
0.90
-0.26
-1.82
-3.89
-6.69
-10.37
-14.82
-19.64
-24.24
-28.11
-31.02
-33.08
-34.70
-36.38
-38.46
-40.92
-43.32
-44.90
-44.76
-42.12
-36.60
-28.39
-18.24
-7.33
3.10
12.03
18.86
23.49
26.19
27.42
27.68
27.34
26.61
25.54
24.12
22.32
20.22
17.98
15.82
13.88
12.25
10.92
9.93
9.36
9.34
9.91
10.88
11.83
12.22
11.56
9.65
6.58
2.72
-1.43
-5.42
-8.95
-11.90
-14.29
-16.23
-17.82
-19.18
-20.35
-21.32
-21.99
-22.30
-22.23
-21.92
-21.65
-21.86
-23.00
-25.43
-29.22
-34.05
-39.12
-43.33
-45.51
-44.74
-40.60
-33.34
-23.79
-13.11
-2.45
7.28
15.54
22.17
27.23
30.83
33.08
34.08
33.90
32.66
30.49
27.52
23.91
19.87
15.72
11.84
8.64
6.44
5.32
5.18
5.75
6.70
7.80
8.91
9.92
10.70
11.05
10.70
9.47
7.32
4.41
1.04
-2.46
-5.86
-9.04
-11.96
-14.64
-17.04
-19.11
-20.77
-21.95
-22.65
-22.86
-22.61
-21.91
-20.85
-19.65
-18.66
-18.39
-19.26
-21.53
-25.01
-29.05
-32.63
-34.61
-34.01
-30.32
-23.66
-14.73
-4.62
5.47
14.48
21.73
26.91
30.05
31.39
31.26
30.01
27.93
25.29
22.34
19.30
16.37
13.70
11.37
9.44
7.99
7.08
6.82
7.23
8.22
9.57
10.95
12.02
12.51
12.31
11.43
10.01
8.16
5.95
3.36
0.37
-3.00
-6.57
-9.99
-12.87
-14.85
-15.83
-15.95
-15.62
-15.27
-15.25
-15.71
-16.58
-17.64
-18.71
-19.67
-20.56
-21.55
-22.93
-24.95
-27.76
-31.26
-35.05
-38.34
-40.16
-39.57
-35.95
-29.27
-20.14
-9.65
0.89
10.33
17.91
23.33
26.68
28.32
28.68
28.20
27.24
26.01
24.62
23.04
21.28
19.39
17.52
15.92
14.74
14.00
13.62
13.45
13.38
13.34
13.27
13.07
12.53
11.45
9.76
7.60
5.30
3.16
1.41
0.02
-1.21
-2.55
-4.21
-6.29
-8.74
-11.38
-14.00
-16.35
-18.27
-19.74
-20.85
-21.84
-23.01
-24.58
-26.71
-29.40
-32.44
-35.43
-37.72
-38.55
-37.18
-33.16
-26.52
-17.83
-8.09
1.56
10.12
16.98
21.95
25.14
26.83
27.28
26.69
25.18
22.85
19.92
16.66
13.38
10.35
7.64
5.17
2.72
0.11
-2.72
-5.67
-8.55
-11.19
-13.51
-15.55
-17.38
-19.06
-20.51
-21.68
-22.57
-23.30
-24.13
-25.31
-26.98
-29.03
-31.15
-32.93
-33.99
-34.11
-33.26
-31.58
-29.27
-26.64
-24.01
-21.78
-20.24
-19.49
-19.25
-18.92
-17.74
-15.13
-10.93
-5.50
0.39
5.91
10.38
13.45
15.04
15.23
14.21
12.21
9.59
6.86
4.59
3.35
3.55
5.32
8.50
12.66
17.22
21.64
25.52
28.70
31.23
33.30
35.08
36.59
37.71
38.25
38.11
37.37
36.29
35.18
34.24
33.43
32.54
31.30
29.56
27.39
25.10
23.03
21.52
20.72
20.61
20.93
21.22
20.88
19.30
16.04
11.07
4.89
-1.56
-7.19
-11.04
-12.61
-11.93
-9.49
-6.02
-2.28
1.06
3.51
4.76
4.73
3.57
1.60
-0.77
-3.14
-5.19
-6.74
-7.72
-8.19
-8.29
-8.26
-8.35
-8.74
-9.44
-10.30
-11.09
-11.67
-12.10
-12.61
-13.49
-14.85
-16.56
-18.33
-19.81
-20.82
-21.39
-21.67
-21.80
-21.84
-21.77
-21.54
-21.22
-20.96
-20.98
-21.47
-22.50
-24.02
-25.83
-27.52
-28.54
-28.24
-26.03
-21.58
-15.01
-6.91
1.79
10.08
17.18
22.60
26.23
28.18
28.64
27.87
26.14
23.81
21.35
19.23
17.86
17.46
17.96
19.03
20.12
20.70
20.43
19.20
17.21
14.78
12.16
9.47
6.66
3.64
0.42
-2.82
-5.82
-8.28
-10.07
-11.23
-11.95
-12.50
-13.08
-13.84
-14.85
-16.23
-18.20
-20.99
-24.84
-29.66
-34.98
-39.90
-43.26
-44.00
-41.51
-35.88
-27.89
-18.79
-9.93
-2.37
3.31
7.05
9.23
10.42
11.11
11.58
11.90
11.95
11.59
10.78
9.67
8.55
7.75
7.45
7.67
8.19
8.74
9.11
9.23
9.17
9.05
8.89
8.56
7.87
6.59
4.65
2.10
-0.89
-4.07
-7.26
-10.31
-13.16
-15.74
-18.05
-20.16
-22.27
-24.61
-27.38
-30.55
-33.76
-36.29
-37.23
-35.77
-31.51
-24.60
-15.79
-6.19
3.05
11.04
17.30
21.72
24.48
25.88
26.22
25.74
24.68
23.24
21.61
19.96
18.37
16.87
15.46
14.17
13.01
11.97
10.97
9.87
8.52
6.82
4.80
2.55
0.21
-2.14
-4.53
-7.02
-9.66
-12.45
-15.33
-18.21
-21.09
-24.01
-27.00
-30.01
-32.94
-35.62
-37.96
-40.07
-42.17
-44.55
-47.31
-50.20
-52.54
-53.32
-51.57
-46.71
-38.83
-28.76
-17.77
-7.21
1.89
9.06
14.30
17.91
20.19
21.34
21.47
20.70
19.28
17.64
16.28
15.58
15.71
16.54
17.73
18.86
19.62
19.85
19.55
18.85
17.92
16.87
15.75
14.50
13.06
11.32
9.24
6.86
4.31
1.81
-0.42
-2.18
-3.40
-4.15
-4.68
-5.32
-6.41
-8.19
-10.72
-13.78
-16.88
-19.33
-20.31
-19.22
-15.74
-10.04
-2.71
5.37
13.28
20.30
25.98
30.22
33.07
34.64
35.04
34.41
32.96
31.01
28.92
27.00
25.36
23.95
22.60
21.16
19.63
18.16
16.94
16.09
15.55
15.13
14.53
13.49
11.88
9.69
7.07
4.21
1.30
-1.60
-4.53
-7.56
-10.77
-14.04
-17.16
-19.80
-21.74
-22.95
-23.70
-24.43
-25.58
-27.44
-29.94
-32.64
-34.85
-35.76
-34.64
-31.10
-25.24
-17.62
-9.14
-0.81
6.59
12.61
17.18
20.46
22.65
23.89
24.19
23.59
22.23
20.35
18.26
16.21
14.33
12.57
10.82
9.03
7.29
5.81
4.79
4.26
4.05
3.86
3.39
2.51
1.27
-0.15
-1.55
-2.83
-4.00
-5.10
-6.15
-7.14
-8.08
-9.05
-10.20
-11.66
-13.45
-15.53
-17.76
-20.03
-22.34
-24.68
-26.97
-28.94
-30.08
-29.81
-27.67
-23.46
-17.43
-10.22
-2.67
4.44
10.52
15.35
19.00
21.67
23.54
24.66
25.04
24.76
24.02
23.20
22.69
22.68
23.06
23.51
23.63
23.22
22.41
21.52
20.94
20.82
20.99
21.05
20.48
18.92
16.25
12.63
8.43
4.05
-0.25
-4.45
-8.75
-13.50
-19.04
-25.55
-32.93
-40.79
-48.51
-55.38
-60.65
-63.61
-63.74
-60.79
-54.91
-46.69
-37.07
-27.11
-17.75
-9.63
-3.01
2.09
5.83
8.33
9.72
10.11
9.73
8.90
8.01
7.33
6.94
6.69
6.30
5.48
4.06
2.05
-0.39
-3.05
-5.74
-8.34
-10.82
-13.18
-15.41
-17.45
-19.16
-20.41
-21.12
-21.24
-20.90
-20.34
-19.86
-19.69
-19.89
-20.42
-21.11
-21.72
-21.89
-21.19
-19.23
-15.79
-10.92
-4.95
1.53
7.87
13.49
18.09
21.55
23.79
24.71
24.26
22.55
19.93
16.88
14.01
12.07
11.58
12.49
14.20
15.94
17.24
18.08
18.75
19.79
22.16
26.37
31.96
37.53
41.59
43.37
43.17
41.99
41.36
43.28
48.70
56.72
64.79
70.19
71.59
69.62
66.29
64.88
69.63
83.78
108.04
140.07
175.45
209.09
236.21
252.66
249.61
223.15
178.55
128.71
85.82
55.22
36.10
25.37
17.93
12.55
10.41
11.95
15.20
15.80
8.60
-10.67
-40.20
-77.49
-117.81
-154.37
-180.35
-191.08
-185.86
-167.84
-142.74
-116.74
-95.17
-80.16
-70.56
-63.76
-57.70
-52.12
-48.11
-46.82
-48.41
-52.26
-56.91
-60.94
-63.89
-66.42
-69.77
-74.82
-81.30
-87.88
-93.25
-96.39
-97.04
-95.73
-93.27
-90.33
-87.06
-83.06
-77.79
-71.08
-63.15
-54.68
-46.58
-39.64
-34.32
-30.51
-27.65
-24.85
-21.20
-16.04
-9.12
-0.78
8.16
16.64
23.70
28.81
32.01
33.88
35.33
37.22
40.17
44.37
49.57
55.23
60.74
65.56
69.40
72.24
74.34
76.02
77.53
78.91
80.15
81.25
82.43
84.12
86.85
90.98
96.51
102.85
108.76
112.51
112.21
106.22
93.79
75.31
52.32
27.19
2.43
-19.71
-37.65
-50.42
-57.56
-59.05
-55.30
-47.17
-35.90
-22.93
-9.51
3.51
15.83
27.52
38.79
49.67
59.91
68.97
76.15
80.79
82.48
81.10
76.93
70.45
62.19
52.57
41.81
29.98
17.24
3.91
-9.47
-22.35
-34.38
-45.57
-56.21
-66.49
-76.24
-84.73
-90.94
-93.95
-93.47
-89.93
-84.50
-78.61
-73.58
-70.24
-68.83
-68.99
-69.86
-70.26
-69.01
-65.25
-58.74
-50.06
-40.40
-31.13
-23.38
-17.57
-13.44
-10.13
-6.51
-1.49
5.65
15.14
26.56
38.90
50.83
61.13
69.17
75.16
80.08
85.17
91.32
98.71
106.68
114.24
120.62
125.61
129.61
133.08
136.09
137.88
136.95
131.38
119.47
100.31
74.09
42.16
6.69
-29.89
-65.38
-98.17
-127.29
-152.39
-173.49
-190.91
-205.18
-217.12
-227.92
-239.08
-252.41
-269.71
-292.22
-319.90
-350.78
-380.83
-404.65
-417.02
-414.70
-397.75
-369.54
-335.47
-300.84
-268.99
-240.43
-213.40
-185.27
-154.17
-119.96
-84.25
-49.70
-18.88
6.49
25.90
39.88
49.44
55.51
58.48
58.28
54.63
47.48
37.31
25.21
12.77
1.66
-6.70
-11.36
-11.93
-8.39
-0.91
10.17
24.38
40.96
58.71
76.07
91.37
103.25
110.98
114.65
115.11
113.51
110.93
108.10
105.30
102.59
100.02
97.82
96.26
95.55
95.59
95.95
96.00
95.24
93.37
90.42
86.61
82.19
77.35
72.22
66.92
61.55
56.18
50.78
45.21
39.34
33.18
26.81
20.40
13.99
7.35
0.08
-8.06
-16.74
-24.98
-31.27
-34.11
-32.56
-26.61
-17.17
-5.64
6.57
18.40
29.29
38.97
47.27
54.01
59.00
62.18
63.68
63.84
63.05
61.72
60.19
58.66
57.27
56.04
54.94
53.99
53.17
52.57
52.28
52.37
52.68
52.83
52.22
50.21
46.43
40.89
34.08
26.80
19.85
13.81
8.87
4.80
1.01
-3.19
-8.42
-14.94
-22.47
-30.18
-36.79
-40.89
-41.38
-37.81
-30.47
-20.26
-8.43
3.80
15.44
25.78
34.36
41.00
45.71
48.70
50.22
50.51
49.71
48.01
45.65
43.09
40.84
39.27
38.44
38.07
37.68
36.91
35.74
34.37
33.11
32.12
31.22
30.02
28.07
25.10
21.16
16.61
12.03
7.94
4.60
1.84
-0.89
-4.31
-9.00
-15.05
-22.05
-29.11
-35.20
-39.37
-40.91
-39.42
-34.82
-27.33
-17.49
-6.08
5.89
17.43
27.64
35.90
41.99
46.13
48.93
51.17
53.58
56.44
59.53
62.15
63.59
63.53
62.39
61.20
61.24
63.44
67.83
73.52
78.96
82.57
83.47
81.87
79.00
76.72
77.03
81.51
90.80
104.16
119.12
131.55
136.40
129.16
107.57
72.87
29.70
-15.42
-56.67
-90.94
-118.54
-141.94
-163.65
-184.24
-201.86
-213.29
-215.74
-208.39
-192.63
-171.28
-147.23
-122.47
-97.84
-73.47
-49.43
-26.16
-4.45
14.81
31.17
44.76
56.29
66.66
76.56
86.16
95.19
103.14
109.74
115.30
120.57
126.53
133.74
141.93
149.84
155.52
156.95
152.69
142.47
127.39
109.68
92.04
76.72
64.72
55.51
47.36
38.12
26.16
11.13
-5.98
-23.20
-38.27
-49.32
-55.33
-56.11
-52.07
-43.96
-32.63
-18.96
-4.03
10.89
24.47
35.45
42.87
46.12
44.98
39.49
29.90
16.85
1.42
-14.71
-29.49
-40.81
-47.07
-47.56
-42.75
-34.25
-24.32
-15.35
-9.23
-6.85
-7.96
-11.36
-15.35
-18.23
-18.86
-16.98
-13.40
-9.73
-8.02
-10.00
-16.45
-26.84
-39.41
-51.73
-61.56
-67.54
-69.57
-68.90
-67.64
-68.42
-73.69
-85.29
-103.93
-128.84
-157.79
-187.42
-214.20
-235.27
-249.07
-255.45
-255.18
-249.28
-238.61
-223.79
-205.32
-183.78
-159.80
-133.94
-106.51
-77.58
-47.38
-16.64
12.97
39.08
59.05
70.82
73.60
68.31
57.49
44.66
33.40
26.39
24.77
28.07
34.62
42.42
49.76
55.69
59.89
62.42
63.33
62.52
59.89
55.47
49.68
43.10
36.39
29.85
23.63
17.73
12.44
8.43
6.64
7.81
12.07
18.73
26.48
33.89
39.86
43.87
45.89
46.10
44.65
41.61
37.12
31.62
25.89
20.86
17.32
15.57
15.30
15.86
16.54
16.93
17.02
17.01
17.06
17.06
16.74
15.80
14.19
12.08
9.74
7.29
4.65
1.63
-1.84
-5.60
-9.26
-12.44
-14.89
-16.70
-18.14
-19.63
-21.50
-23.90
-26.76
-29.71
-32.07
-32.99
-31.59
-27.38
-20.49
-11.77
-2.62
5.44
11.10
13.65
12.98
9.37
3.40
-4.31
-13.09
-22.22
-30.88
-38.22
-43.56
-46.51
-47.03
-45.45
-42.26
-38.07
-33.44
-28.85
-24.53
-20.56
-16.89
-13.48
-10.42
-7.96
-6.36
-5.77
-6.02
-6.75
-7.56
-8.09
-8.14
-7.69
-6.79
-5.68
-4.76
-4.55
-5.55
-7.85
-10.89
-13.41
-13.69
-10.12
-1.67
11.77
29.36
49.52
70.17
89.20
104.76
115.64
121.53
122.90
120.76
116.28
110.40
103.66
96.24
88.17
79.51
70.42
61.10
51.62
41.89
31.60
20.49
8.45
-4.39
-17.65
-30.93
-44.03
-57.06
-70.39
-84.42
-99.35
-115.03
-131.18
-147.49
-163.66
-179.33
-193.81
-206.08
-215.02
-219.85
-220.41
-217.01
-209.84
-198.61
-182.48
-160.70
-133.48
-102.43
-70.43
-40.65
-15.39
4.45
19.38
30.53
38.94
45.06
48.91
50.47
50.01
48.28
46.22
44.65
43.98
44.07
44.44
44.46
43.79
42.41
40.63
38.83
37.18
35.54
33.42
30.25
25.68
19.80
13.19
6.58
0.73
-4.01
-7.77
-11.13
-14.85
-19.60
-25.71
-32.91
-40.41
-46.91
-50.91
-51.01
-46.29
-36.75
-23.39
-8.10
6.97
19.99
30.05
37.13
41.78
44.63
45.94
45.69
43.81
40.64
36.92
33.76
32.00
31.94
33.16
34.73
35.63
35.24
33.54
31.03
28.47
26.33
24.64
22.99
20.77
17.57
13.36
8.48
3.37
-1.63
-6.46
-11.27
-16.27
-21.59
-27.27
-33.35
-39.83
-46.58
-53.11
-58.42
-61.20
-60.14
-54.46
-44.21
-30.34
-14.45
1.68
16.56
29.12
38.94
46.01
50.56
52.98
53.63
52.91
51.24
49.10
47.01
45.40
44.51
44.21
44.14
43.83
42.99
41.69
40.37
39.54
39.38
39.63
39.56
38.47
36.03
32.50
28.57
24.91
21.81
19.00
15.90
11.86
6.56
-0.04
-7.80
-16.56
-26.17
-36.23
-45.91
-53.89
-58.64
-58.98
-54.36
-45.20
-32.67
-18.38
-3.96
9.26
20.42
29.19
35.68
40.28
43.51
45.82
47.52
48.82
49.85
50.75
51.60
52.43
53.11
53.47
53.37
52.80
51.91
50.84
49.63
48.17
46.17
43.36
39.54
34.80
29.40
23.76
18.31
13.23
8.43
3.55
-1.81
-7.78
-14.09
-20.08
-24.89
-28.01
-29.43
-29.88
-30.47
-32.43
-36.58
-43.10
-51.35
-59.95
-67.10
-70.89
-69.88
-63.51
-52.32
-37.84
-22.18
-7.31
5.43
15.57
23.32
29.15
33.35
35.97
36.93
36.38
34.83
33.07
31.82
31.41
31.64
31.98
31.96
31.42
30.54
29.66
29.02
28.63
28.28
27.77
27.02
26.02
24.78
23.14
20.88
17.77
13.77
9.16
4.36
-0.24
-4.38
-8.09
-11.53
-14.91
-18.44
-22.28
-26.50
-30.98
-35.23
-38.41
-39.54
-37.79
-32.99
-25.62
-16.68
-7.31
1.62
9.64
16.54
22.14
26.21
28.48
28.89
27.76
25.75
23.70
22.20
21.50
21.38
21.44
21.36
21.02
20.56
20.20
20.05
20.03
19.99
19.74
19.26
18.58
17.76
16.80
15.59
13.99
11.94
9.51
6.86
4.09
1.27
-1.57
-4.36
-6.96
-9.28
-11.32
-13.38
-16.01
-19.80
-25.06
-31.58
-38.49
-44.48
-48.17
-48.58
-45.46
-39.33
-31.32
-22.75
-14.76
-8.07
-2.92
0.80
3.40
5.17
6.32
6.94
7.05
6.60
5.55
3.93
1.85
-0.44
-2.63
-4.37
-5.43
-5.76
-5.47
-4.81
-4.04
-3.31
-2.55
-1.57
-0.15
1.75
3.89
5.83
7.06
7.32
6.63
5.30
3.64
1.91
0.15
-1.73
-3.82
-6.17
-8.80
-11.89
-15.64
-20.21
-25.33
-30.13
-33.28
-33.46
-29.92
-22.88
-13.51
-3.45
5.91
13.82
20.28
25.63
30.07
33.42
35.22
35.09
33.12
29.90
26.28
23.04
20.61
19.00
17.98
17.28
16.73
16.22
15.67
15.00
14.13
12.97
11.49
9.73
7.75
5.73
3.82
2.18
0.82
-0.39
-1.69
-3.28
-5.20
-7.29
-9.30
-10.98
-12.28
-13.30
-14.26
-15.45
-17.16
-19.63
-23.02
-27.27
-32.00
-36.44
-39.53
-40.20
-37.73
-32.02
-23.71
-13.98
-4.25
4.25
10.77
15.19
17.87
19.42
20.40
21.17
21.83
22.35
22.64
22.65
22.39
21.92
21.33
20.73
20.24
19.89
19.70
19.68
19.84
20.16
20.51
20.56
19.86
18.05
15.03
11.15
7.06
3.46
0.71
-1.26
-2.86
-4.50
-6.34
-8.29
-10.12
-11.74
-13.32
-15.27
-18.05
-22.06
-27.54
-34.48
-42.56
-51.08
-58.93
-64.71
-67.14
-65.38
-59.45
-50.19
-38.98
-27.32
-16.38
-6.86
1.03
7.31
12.08
15.39
17.27
17.92
17.71
17.15
16.75
16.83
17.37
18.13
18.83
19.34
19.74
20.21
20.93
21.82
22.61
22.91
22.38
20.89
18.54
15.62
12.36
8.95
5.47
1.96
-1.53
-4.84
-7.76
-10.11
-11.83
-13.10
-14.24
-15.64
-17.71
-20.73
-24.86
-30.03
-35.86
-41.59
-46.07
-48.06
-46.67
-41.66
-33.68
-24.01
-14.12
-5.17
2.27
8.18
12.81
16.40
19.06
20.86
21.94
22.52
22.91
23.23
23.43
23.27
22.55
21.20
19.46
17.72
16.34
15.50
15.09
14.85
14.43
13.65
12.51
11.08
9.54
7.99
6.51
5.15
3.90
2.68
1.34
-0.25
-2.18
-4.37
-6.68
-8.88
-10.84
-12.60
-14.43
-16.77
-20.05
-24.48
-29.87
-35.55
-40.33
-42.92
-42.26
-37.95
-30.44
-20.88
-10.76
-1.34
6.53
12.61
17.03
20.05
21.99
23.07
23.57
23.69
23.66
23.60
23.61
23.67
23.71
23.60
23.08
21.96
20.18
17.93
15.58
13.51
11.76
10.16
8.30
5.85
2.82
-0.53
-3.80
-6.78
-9.48
-12.10
-14.84
-17.65
-20.32
-22.61
-24.40
-25.78
-27.09
-28.75
-31.13
-34.41
-38.44
-42.63
-45.98
-47.24
-45.37
-39.94
-31.37
-20.82
-9.83
0.24
8.59
15.04
19.80
23.13
25.09
25.56
24.43
21.88
18.52
15.24
12.98
12.33
13.32
15.44
17.88
19.85
20.87
20.91
20.23
19.21
18.05
16.77
15.23
13.22
10.67
7.60
4.17
0.62
-2.78
-5.83
-8.50
-10.91
-13.40
-16.31
-19.88
-24.18
-29.04
-34.14
-39.08
-43.31
-46.15
-46.80
-44.60
-39.30
-31.24
-21.43
-11.22
-1.81
6.15
12.63
18.01
22.61
26.40
29.05
30.12
29.46
27.43
24.79
22.37
20.73
19.98
19.85
19.93
19.91
19.68
19.26
18.71
17.97
16.94
15.52
13.65
11.39
8.81
6.06
3.24
0.35
-2.72
-6.06
-9.75
-13.72
-17.76
-21.56
-24.86
-27.62
-30.02
-32.50
-35.58
-39.51
-44.18
-48.85
-52.40
-53.57
-51.39
-45.52
-36.34
-24.90
-12.59
-0.82
9.33
17.27
22.85
26.27
27.91
28.22
27.63
26.47
24.95
23.26
21.51
19.87
18.51
17.64
17.40
17.82
18.80
20.06
21.17
21.66
21.16
19.62
17.27
14.61
12.13
10.12
8.48
6.84
4.74
1.90
-1.60
-5.42
-9.10
-12.34
-15.02
-17.21
-19.16
-21.18
-23.71
-27.11
-31.54
-36.61
-41.36
-44.46
-44.70
-41.39
-34.68
-25.51
-15.11
-4.65
5.05
13.56
20.67
26.29
30.33
32.75
33.65
33.21
31.71
29.52
27.03
24.69
22.89
21.91
21.85
22.48
23.45
24.35
24.85
24.87
24.49
23.86
23.04
21.90
20.20
17.72
14.38
10.48
6.57
3.21
0.79
-0.77
-1.95
-3.41
-5.77
-9.35
-14.13
-19.90
-26.29
-32.82
-38.74
-43.01
-44.40
-41.92
-35.29
-25.14
-13.00
-0.75
9.99
18.41
24.54
28.99
32.38
34.94
36.49
36.60
35.08
32.26
28.97
26.21
24.75
24.80
26.00
27.64
28.95
29.42
28.83
27.18
24.65
21.49
17.97
14.41
11.08
8.16
5.59
3.12
0.36
-2.92
-6.69
-10.64
-14.35
-17.50
-20.12
-22.56
-25.42
-29.23
-34.09
-39.52
-44.43
-47.45
-47.31
-43.28
-35.39
-24.45
-11.74
1.35
13.63
24.37
33.21
40.02
44.68
46.99
46.82
44.22
39.59
33.68
27.37
21.47
16.49
12.59
9.65
7.36
5.29
2.89
-0.44
-5.20
-11.61
-19.50
-28.21
-36.87
-44.66
-51.04
-55.96
-59.73
-62.73
-65.21
-67.18
-68.35
-68.44
-67.29
-64.99
-61.98
-58.86
-56.21
-54.52
-54.01
-54.54
-55.68
-56.60
-56.15
-53.10
-46.54
-36.25
-22.91
-8.06
6.41
18.89
28.48
35.15
39.44
42.05
43.56
44.25
44.26
43.69
42.75
41.74
40.99
40.80
41.32
42.49
44.02
45.47
46.35
46.24
45.05
42.93
40.28
37.40
34.47
31.46
28.31
24.95
21.39
17.68
13.88
10.05
6.29
2.66
-0.83
-4.37
-8.28
-12.99
-18.79
-25.66
-33.09
-40.15
-45.61
-48.32
-47.48
-42.92
-35.10
-25.05
-14.12
-3.55
5.74
13.33
19.20
23.53
26.57
28.54
29.69
30.36
31.01
32.06
33.75
36.03
38.53
40.69
42.03
42.34
41.77
40.75
39.65
38.62
37.41
35.56
32.70
28.74
23.95
18.73
13.46
8.25
3.01
-2.41
-7.98
-13.46
-18.41
-22.43
-25.41
-27.62
-29.72
-32.51
-36.72
-42.62
-49.95
-57.71
-64.52
-68.88
-69.65
-66.37
-59.26
-49.12
-37.07
-24.37
-12.22
-1.60
6.86
12.98
17.12
19.87
21.91
23.66
25.15
26.21
26.68
26.59
26.22
25.87
25.68
25.62
25.55
25.40
25.16
24.85
24.39
23.60
22.25
20.30
17.89
15.30
12.79
10.37
7.87
5.00
1.67
-1.91
-5.26
-7.89
-9.55
-10.32
-10.65
-11.19
-12.55
-15.18
-19.24
-24.60
-30.76
-36.99
-42.28
-45.54
-45.82
-42.56
-35.87
-26.58
-16.09
-5.93
2.69
9.21
13.69
16.59
18.42
19.43
19.64
18.99
17.64
16.02
14.76
14.37
15.07
16.64
18.58
20.32
21.43
21.71
21.16
19.91
18.09
15.87
13.39
10.83
8.36
6.07
3.93
1.72
-0.75
-3.62
-6.78
-9.91
-12.67
-14.88
-16.61
-18.21
-20.12
-22.74
-26.31
-30.91
-36.30
-41.84
-46.36
-48.36
-46.39
-39.70
-28.67
-14.86
-0.53
12.17
21.93
28.48
32.44
34.62
35.61
35.61
34.62
32.80
30.58
28.56
27.20
26.53
26.20
25.73
24.88
23.77
22.87
22.63
23.18
24.14
24.74
24.11
21.70
17.54
12.18
6.53
1.47
-2.51
-5.34
-7.39
-9.15
-11.06
-13.33
-16.02
-19.11
-22.59
-26.46
-30.66
-35.06
-39.59
-44.28
-49.32
-54.78
-60.31
-64.92
-67.14
-65.50
-59.25
-48.75
-35.44
-21.39
-8.48
2.12
10.15
16.04
20.36
23.51
25.65
26.76
26.88
26.20
25.06
23.78
22.62
21.70
21.07
20.68
20.41
20.10
19.54
18.60
17.28
15.71
14.14
12.69
11.29
9.67
7.47
4.48
0.80
-3.14
-6.85
-9.90
-12.23
-14.13
-16.15
-18.72
-22.03
-25.78
-29.41
-32.34
-34.27
-35.38
-36.20
-37.36
-39.31
-42.22
-45.97
-50.21
-54.42
-57.81
-59.41
-58.10
-53.06
-44.20
-32.31
-18.94
-5.85
5.62
14.93
22.15
27.61
31.60
34.14
35.29
35.26
34.63
34.04
33.98
34.46
35.08
35.28
34.69
33.37
31.77
30.50
30.00
30.33
31.08
31.60
31.24
29.63
26.84
23.25
19.41
15.73
12.39
9.32
6.34
3.27
-0.07
-3.78
-8.00
-12.74
-17.77
-22.69
-27.04
-30.70
-34.05
-37.93
-43.16
-49.96
-57.54
-64.15
-67.64
-66.34
-59.70
-48.48
-34.35
-19.32
-4.97
7.71
18.34
26.80
32.99
36.69
37.83
36.65
33.89
30.62
27.84
26.13
25.40
25.12
24.65
23.67
22.27
20.81
19.61
18.68
17.76
16.46
14.61
12.23
9.54
6.75
3.94
1.04
-2.04
-5.33
-8.78
-12.38
-16.10
-19.99
-24.05
-28.15
-32.07
-35.64
-38.84
-41.97
-45.56
-50.10
-55.89
-62.63
-69.44
-74.81
-76.98
-74.45
-66.49
-53.57
-37.30
-19.98
-3.82
9.69
20.15
27.96
33.78
38.11
41.12
42.78
43.26
43.09
42.92
43.26
44.17
45.29
46.02
45.98
45.25
44.27
43.73
44.09
45.33
46.94
48.15
48.27
47.01
44.64
41.73
38.85
36.20
33.60
30.58
26.70
21.77
15.93
9.60
3.19
-2.92
-8.58
-13.79
-18.82
-24.09
-30.09
-37.20
-45.44
-54.28
-62.60
-68.89
-71.62
-69.57
-62.36
-50.55
-35.62
-19.57
-4.30
8.88
19.50
27.81
34.36
39.49
43.20
45.19
45.25
43.57
40.82
37.93
35.71
34.56
34.31
34.54
34.77
34.81
34.73
34.75
34.94
35.16
34.97
33.89
31.69
28.50
24.79
21.15
18.01
15.48
13.36
11.22
8.64
5.38
1.36
-3.25
-8.12
-12.85
-17.08
-20.53
-23.20
-25.33
-27.45
-30.27
-34.43
-40.13
-46.87
-53.42
-58.05
-59.06
-55.42
-47.11
-35.15
-21.15
-6.83
6.45
17.80
26.80
33.25
37.18
38.77
38.50
36.98
34.91
32.83
31.08
29.78
28.89
28.29
27.95
27.79
27.82
27.96
28.08
27.97
27.41
26.22
24.39
22.07
19.52
16.99
14.59
12.16
9.39
6.02
1.86
-3.02
-8.41
-13.94
-19.21
-23.82
-27.48
-30.14
-32.10
-33.99
-36.69
-40.92
-46.88
-53.96
-60.72
-65.29
-65.98
-61.92
-53.32
-41.49
-28.33
-15.76
-5.19
2.75
8.17
11.68
14.00
15.59
16.51
16.49
15.19
12.54
9.03
5.62
3.45
3.35
5.52
9.47
14.35
19.35
23.98
28.02
31.28
33.46
34.08
32.75
29.43
24.57
18.97
13.48
8.62
4.46
0.65
-3.29
-7.67
-12.48
-17.38
-21.92
-25.82
-29.23
-32.71
-37.02
-42.57
-48.98
-55.00
-58.82
-58.81
-54.21
-45.46
-34.03
-21.80
-10.44
-0.90
6.58
12.22
16.37
19.31
21.17
22.11
22.40
22.37
22.42
22.77
23.47
24.38
25.41
26.55
27.92
29.67
31.75
33.89
35.58
36.32
35.85
34.29
32.04
29.60
27.29
25.07
22.69
19.79
16.17
11.89
7.22
2.54
-1.87
-5.87
-9.61
-13.34
-17.41
-22.09
-27.48
-33.47
-39.67
-45.44
-49.97
-52.49
-52.32
-49.14
-42.98
-34.30
-23.94
-12.94
-2.37
6.90
14.38
19.97
23.83
26.26
27.51
27.76
27.15
25.87
24.22
22.50
21.04
20.06
19.73
20.07
20.93
21.91
22.53
22.34
21.21
19.40
17.44
15.79
14.55
13.37
11.72
9.22
5.93
2.22
-1.38
-4.63
-7.60
-10.58
-13.88
-17.57
-21.61
-25.93
-30.58
-35.62
-40.93
-45.90
-49.48
-50.41
-47.70
-41.10
-31.28
-19.59
-7.63
3.22
12.16
18.99
23.84
26.90
28.30
28.10
26.44
23.69
20.53
17.69
15.80
15.12
15.49
16.49
17.56
18.33
18.59
18.35
17.65
16.54
14.96
12.92
10.42
7.60
4.66
1.71
-1.20
-4.20
-7.43
-10.94
-14.62
-18.24
-21.59
-24.64
-27.56
-30.70
-34.38
-38.73
-43.62
-48.60
-52.92
-55.65
-55.76
-52.39
-45.17
-34.46
-21.48
-8.01
4.10
13.54
19.87
23.46
25.07
25.50
25.26
24.61
23.74
22.88
22.27
22.05
22.17
22.35
22.30
21.84
21.02
20.05
19.23
18.73
18.60
18.64
18.54
17.87
16.30
13.63
9.94
5.55
0.93
-3.46
-7.38
-10.88
-14.21
-17.61
-21.19
-24.83
-28.33
-31.63
-34.95
-38.76
-43.52
-49.29
-55.53
-60.97
-64.05
-63.49
-58.72
-50.14
-38.85
-26.28
-13.69
-2.01
8.31
17.02
24.01
29.20
32.53
34.03
33.96
32.68
30.75
28.71
27.05
26.04
25.70
25.83
26.15
26.49
26.83
27.26
27.82
28.33
28.40
27.61
25.67
22.64
18.93
15.10
11.60
8.62
5.96
3.27
0.22
-3.29
-7.12
-10.90
-14.31
-17.20
-19.66
-22.02
-24.79
-28.47
-33.44
-39.71
-46.78
-53.54
-58.38
-59.62
-56.08
-47.54
-35.00
-20.35
-5.73
7.17
17.49
25.18
30.60
34.13
35.94
36.05
34.61
31.98
28.86
25.96
23.90
22.97
23.15
24.25
25.92
27.76
29.35
30.24
30.15
29.01
27.00
24.51
22.00
19.77
17.93
16.31
14.58
12.32
9.29
5.40
0.89
-3.78
-8.02
-11.30
-13.43
-14.63
-15.63
-17.31
-20.42
-25.11
-30.76
-36.05
-39.24
-38.78
-33.75
-24.26
-11.38
3.10
17.24
29.42
38.75
45.06
48.82
50.72
51.35
51.03
49.83
47.83
45.28
42.59
40.18
38.24
36.52
34.55
31.79
28.06
23.65
19.29
15.79
13.61
12.64
12.30
11.89
11.01
9.77
8.71
8.42
9.18
10.79
12.71
14.36
15.51
16.37
17.47
19.30
22.05
25.40
28.66
30.90
31.22
28.94
23.83
16.13
6.59
-3.73
-13.75
-22.71
-30.21
-36.36
-41.51
-45.98
-49.99
-53.47
-56.22
-58.11
-59.18
-59.63
-59.75
-59.67
-59.34
-58.51
-56.92
-54.42
-51.06
-47.09
-42.72
-38.11
-33.28
-28.19
-22.98
-17.93
-13.48
-9.96
-7.48
-5.86
-4.76
-3.89
-3.14
-2.63
-2.67
-3.54
-5.45
-8.36
-12.02
-16.03
-19.94
-23.40
-26.22
-28.44
-30.40
-32.61
-35.75
-40.42
-46.83
-54.54
-62.28
-68.22
-70.38
-67.42
-59.18
-46.82
-32.46
-18.31
-6.08
3.49
10.48
15.36
18.60
20.43
21.01
20.56
19.50
18.25
17.14
16.20
15.25
14.08
12.75
11.51
10.78
10.79
11.44
12.37
13.10
13.28
12.84
11.95
10.87
9.76
8.68
7.56
6.33
4.92
3.21
1.10
-1.55
-4.76
-8.43
-12.33
-16.27
-20.27
-24.56
-29.58
-35.71
-43.02
-51.09
-58.94
-65.21
-68.44
-67.48
-61.90
-52.26
-39.98
-26.95
-14.91
-4.91
2.84
8.66
13.02
16.08
17.69
17.64
15.99
13.26
10.29
8.00
7.02
7.56
9.48
12.40
15.83
19.24
22.14
24.20
25.24
25.24
24.28
22.52
20.12
17.29
14.29
11.34
8.47
5.55
2.30
-1.43
-5.54
-9.70
-13.46
-16.65
-19.41
-22.18
-25.45
-29.47
-34.15
-38.95
-43.04
-45.38
-44.86
-40.55
-31.99
-19.44
-4.08
12.24
27.44
39.89
48.87
54.53
57.63
58.96
59.03
58.00
56.02
53.51
51.13
49.57
49.06
49.17
48.94
47.42
44.09
39.15
33.35
27.54
22.30
17.65
13.26
8.63
3.43
-2.37
-8.41
-14.14
-19.04
-22.92
-26.00
-28.85
-32.10
-36.21
-41.31
-47.27
-53.80
-60.42
-66.30
-70.17
-70.43
-65.67
-55.28
-39.90
-21.43
-2.41
14.85
28.93
39.58
47.33
52.99
57.15
59.94
61.29
61.13
59.67
57.49
55.29
53.60
52.61
52.11
51.64
50.85
49.68
48.36
47.21
46.32
45.31
43.43
39.83
33.95
25.80
16.09
5.94
-3.43
-11.11
-16.81
-20.94
-24.37
-28.22
-33.43
-40.50
-49.26
-58.79
-67.65
-74.08
-76.51
-73.92
-66.13
-53.85
-38.52
-21.90
-5.67
8.93
21.23
31.01
38.40
43.66
47.08
49.02
49.82
49.80
49.20
48.20
46.94
45.58
44.29
43.26
42.57
42.15
41.78
41.26
40.53
39.64
38.72
37.74
36.39
34.11
30.26
24.44
16.63
7.27
-2.90
-13.11
-22.75
-31.49
-39.25
-46.20
-52.64
-58.92
-65.26
-71.50
-76.92
-80.24
-79.98
-75.00
-65.01
-50.92
-34.57
-18.09
-3.25
9.06
18.74
26.15
31.63
35.28
37.01
36.79
34.88
31.81
28.27
24.83
21.78
19.12
16.72
14.51
12.55
11.06
10.29
10.40
11.29
12.68
14.12
15.17
15.54
15.20
14.37
13.36
12.50
11.95
11.57
10.96
9.56
6.82
2.43
-3.59
-10.90
-18.91
-26.84
-33.84
-38.95
-41.32
-40.41
-36.19
-29.35
-21.13
-12.94
-5.85
-0.22
4.18
7.90
11.21
13.86
15.21
14.62
11.95
7.79
3.28
-0.42
-2.62
-3.32
-3.10
-2.66
-2.53
-2.79
-3.16
-3.26
-2.94
-2.35
-1.90
-2.06
-3.20
-5.42
-8.56
-12.30
-16.19
-19.80
-22.82
-25.13
-26.87
-28.35
-29.99
-32.20
-35.23
-39.03
-43.14
-46.67
-48.41
-47.13
-41.93
-32.59
-19.69
-4.60
10.92
25.18
36.96
45.74
51.62
55.11
56.81
57.17
56.48
54.92
52.67
50.03
47.41
45.27
43.92
43.48
43.74
44.18
44.13
42.96
40.17
35.54
29.16
21.37
12.71
3.76
-4.84
-12.62
-19.21
-24.54
-28.71
-31.94
-34.50
-36.52
-38.08
-39.33
-40.57
-42.29
-45.08
-49.31
-54.95
-61.34
-67.26
-71.19
-71.66
-67.72
-59.19
-46.80
-31.99
-16.48
-1.89
10.67
20.71
28.29
33.81
37.76
40.51
42.30
43.28
43.51
43.10
42.21
41.05
39.88
38.94
38.38
38.23
38.44
38.83
39.21
39.41
39.25
38.61
37.35
35.43
32.93
30.03
26.95
23.89
20.96
18.13
15.33
12.58
9.99
7.79
6.13
4.87
3.55
1.37
-2.40
-8.03
-15.15
-22.74
-29.36
-33.66
-34.71
-32.26
-26.76
-19.22
-10.93
-3.10
3.32
7.82
10.35
11.18
10.85
9.98
9.09
8.58
8.63
9.23
10.22
11.37
12.51
13.58
14.60
15.62
16.58
17.30
17.52
17.08
15.94
14.26
12.33
10.51
9.09
8.19
7.68
7.15
5.98
3.53
-0.63
-6.51
-13.69
-21.42
-28.89
-35.61
-41.50
-46.87
-52.27
-58.17
-64.73
-71.67
-78.17
-83.14
-85.33
-83.72
-77.77
-67.56
-53.82
-37.86
-21.25
-5.50
8.23
19.25
27.30
32.50
35.08
35.40
33.85
30.88
27.08
23.08
19.44
16.58
14.60
13.38
12.73
12.55
12.91
13.97
15.77
18.01
20.11
21.38
21.31
19.79
17.08
13.66
9.94
6.15
2.26
-1.88
-6.45
-11.51
-17.11
-23.20
-29.52
-35.58
-40.71
-44.28
-46.12
-46.69
-47.04
-48.45
-51.88
-57.46
-64.36
-70.98
-75.37
-75.94
-71.92
-63.53
-51.80
-38.22
-24.25
-11.04
0.68
10.48
18.14
23.55
26.77
28.09
28.08
27.30
26.26
25.25
24.35
23.64
23.20
23.11
23.28
23.46
23.33
22.67
21.53
20.19
19.00
18.15
17.61
17.12
16.41
15.23
13.51
11.26
8.57
5.59
2.48
-0.62
-3.60
-6.45
-9.27
-12.16
-15.26
-18.64
-22.39
-26.63
-31.38
-36.49
-41.47
-45.43
-47.25
-45.87
-40.69
-31.88
-20.42
-7.88
4.11
14.26
21.97
27.30
30.73
32.82
34.02
34.55
34.53
34.02
33.12
31.95
30.60
29.18
27.77
26.54
25.66
25.28
25.38
25.69
25.72
24.90
22.89
19.65
15.52
11.08
6.83
3.00
-0.53
-4.05
-7.85
-11.95
-16.16
-20.23
-24.08
-27.84
-31.77
-36.09
-40.87
-46.02
-51.47
-57.27
-63.44
-69.69
-75.23
-78.71
-78.64
-73.89
-64.25
-50.49
-34.19
-17.20
-1.22
12.58
23.61
31.79
37.39
40.93
43.10
44.64
46.16
48.05
50.34
52.85
55.24
57.29
58.84
59.94
60.69
61.17
61.30
60.84
59.58
57.34
54.14
50.21
45.93
41.76
38.07
35.04
32.51
29.94
26.46
21.14
13.31
2.93
-9.23
-21.73
-32.80
-41.07
-45.94
-47.89
-48.13
-48.21
-49.49
-52.81
-58.39
-65.82
-74.16
-82.06
-88.06
-90.78
-89.43
-84.04
-75.36
-64.62
-53.08
-41.75
-31.31
-22.26
-15.08
-9.99
-6.98
-5.51
-4.69
-3.65
-1.91
0.46
2.93
4.96
6.42
7.63
9.26
11.74
15.02
18.47
21.23
22.60
22.35
20.78
18.43
15.88
13.42
11.10
8.81
6.41
3.84
1.14
-1.57
-4.17
-6.64
-9.16
-12.12
-15.97
-21.06
-27.41
-34.76
-42.63
-50.47
-57.73
-63.75
-67.68
-68.37
-64.82
-56.50
-43.93
-28.55
-12.41
2.52
14.93
24.37
31.07
35.41
37.74
38.27
37.26
35.27
33.09
31.53
31.04
31.62
32.86
34.24
35.35
36.05
36.36
36.36
36.14
35.68
35.04
34.25
33.30
32.13
30.60
28.58
26.00
22.96
19.55
15.85
11.91
7.80
3.83
0.48
-1.71
-2.40
-1.76
-0.41
0.72
0.65
-1.25
-5.06
-10.16
-15.27
-18.68
-18.58
-13.61
-3.25
11.82
29.78
47.98
63.63
74.47
79.29
78.19
72.31
63.59
54.20
46.10
40.72
38.71
39.99
43.77
48.86
53.94
57.96
60.40
61.39
61.52
61.43
61.35
60.88
59.05
54.74
47.28
36.74
24.04
10.55
-2.41
-13.96
-23.85
-32.36
-39.93
-46.87
-53.28
-59.00
-63.91
-68.04
-71.61
-74.99
-78.61
-82.79
-87.58
-92.67
-97.28
-100.16
-99.92
-95.38
-86.00
-72.29
-55.65
-38.03
-21.38
-7.14
3.94
11.78
16.73
19.34
20.19
19.86
18.85
17.61
16.59
16.13
16.55
17.99
20.32
23.16
25.88
27.85
28.69
28.44
27.55
26.56
25.82
25.18
24.12
22.03
18.61
14.09
9.15
4.48
0.46
-3.08
-6.70
-10.96
-16.15
-22.05
-28.25
-34.36
-40.18
-45.65
-50.62
-54.64
-56.93
-56.70
-53.31
-46.52
-36.70
-24.68
-11.65
1.06
12.26
21.17
27.49
31.39
33.26
33.55
32.51
30.30
27.12
23.38
19.70
16.73
14.91
14.37
14.79
15.66
16.43
16.77
16.59
16.09
15.47
14.98
14.62
14.20
13.42
11.92
9.35
5.67
1.05
-4.13
-9.34
-14.15
-18.31
-21.80
-24.85
-27.90
-31.51
-36.29
-42.70
-50.79
-59.90
-68.61
-74.90
-76.74
-72.89
-63.32
-49.47
-33.70
-18.39
-5.23
5.22
13.28
19.61
24.66
28.38
30.39
30.40
28.58
25.55
22.34
19.80
18.47
18.38
19.31
20.97
23.16
25.73
28.40
30.74
32.18
32.29
30.97
28.54
25.66
22.97
20.80
19.10
17.43
15.23
12.14
8.15
3.54
-1.28
-6.01
-10.67
-15.58
-21.18
-27.94
-36.07
-45.37
-55.16
-64.27
-71.21
-74.49
-72.99
-66.39
-55.37
-41.41
-26.38
-11.94
0.78
11.35
19.76
26.09
30.38
32.60
32.90
31.67
29.60
27.53
26.25
26.28
27.79
30.54
33.93
37.16
39.46
40.35
39.88
38.57
37.22
36.41
36.28
36.45
36.25
35.10
32.97
30.35
28.12
27.00
27.16
27.97
28.23
26.58
21.87
13.59
1.95
-12.05
-26.62
-39.42
-47.94
-50.15
-45.23
-33.92
-18.45
-1.83
13.20
24.92
32.87
37.41
39.09
38.09
34.31
27.70
18.71
8.52
-1.28
-9.24
-14.41
-16.68
-16.62
-15.22
-13.48
-12.19
-11.74
-12.01
-12.68
-13.31
-13.71
-14.12
-15.07
-17.18
-20.85
-26.08
-32.43
-39.17
-45.53
-50.95
-55.24
-58.58
-61.51
-64.78
-68.98
-74.27
-80.13
-85.37
-88.39
-87.63
-82.07
-71.52
-56.63
-38.72
-19.37
-0.13
17.72
33.34
46.25
56.38
63.90
69.15
72.62
74.80
76.27
77.69
79.75
83.07
87.98
94.47
101.92
109.28
115.17
118.25
117.49
112.51
103.76
92.33
79.76
67.39
55.88
45.04
33.87
21.20
6.26
-10.95
-29.75
-49.16
-68.44
-87.32
-105.77
-123.80
-141.02
-156.78
-170.24
-180.65
-187.39
-189.70
-186.63
-177.08
-160.30
-136.45
-106.97
-74.33
-41.32
-10.29
17.42
41.39
61.78
78.84
92.72
103.59
111.88
118.41
124.34
130.69
138.00
146.00
153.61
159.31
161.66
159.69
153.39
143.73
132.41
121.28
111.76
104.44
98.99
94.57
90.29
85.71
80.98
76.55
72.72
69.27
65.43
60.34
53.54
45.23
36.14
27.08
18.42
10.01
1.44
-7.61
-17.14
-26.96
-37.13
-48.04
-60.35
-74.49
-90.16
-106.36
-121.84
-135.72
-147.93
-159.29
-170.86
-183.42
-197.09
-211.18
-224.55
-235.91
-244.08
-248.08
-247.26
-241.26
-230.21
-214.65
-195.45
-173.62
-150.19
-126.05
-102.08
-79.23
-58.39
-40.26
-25.03
-12.29
-1.20
9.15
19.32
29.23
38.18
45.15
49.18
49.81
47.28
42.49
36.82
31.84
28.95
29.15
32.85
39.87
49.42
60.46
71.91
82.97
93.15
102.29
110.24
116.68
120.92
122.06
119.29
112.38
101.95
89.33
76.31
64.49
54.82
47.38
41.50
36.28
31.01
25.51
20.12
15.29
11.22
7.64
3.87
-0.81
-6.70
-13.61
-20.91
-27.91
-34.18
-39.71
-44.77
-49.73
-54.87
-60.45
-66.75
-74.03
-82.25
-90.77
-98.26
-102.89
-103.03
-97.80
-87.41
-73.17
-56.88
-40.30
-24.68
-10.56
1.96
12.90
22.18
29.58
34.81
37.90
39.16
39.30
39.27
39.99
42.09
45.68
50.28
54.95
58.60
60.32
59.70
57.02
53.18
49.35
46.61
45.48
45.86
47.17
48.67
49.77
50.18
49.84
48.85
47.28
45.03
41.81
37.16
30.57
21.65
10.40
-2.69
-16.47
-29.38
-39.68
-45.93
-47.30
-43.75
-36.04
-25.54
-13.98
-3.17
5.29
10.26
11.30
8.74
3.63
-2.45
-7.75
-10.77
-10.69
-7.57
-2.40
3.33
8.18
11.28
12.70
13.33
14.47
17.15
21.65
27.29
32.65
36.17
36.82
34.42
29.58
23.35
16.64
9.84
2.66
-5.61
-15.77
-28.36
-43.40
-60.36
-78.12
-95.04
-109.12
-118.35
-121.20
-117.13
-106.86
-92.09
-74.98
-57.50
-40.93
-25.86
-12.30
-0.02
11.19
21.49
30.92
39.32
46.14
50.59
51.84
49.51
44.06
36.75
29.29
23.23
19.44
17.93
18.04
18.81
19.36
19.06
17.56
14.79
10.91
6.34
1.69
-2.35
-5.30
-7.06
-7.85
-8.09
-8.03
-7.66
-6.71
-4.97
-2.62
-0.24
1.38
1.89
1.71
2.22
5.26
12.37
24.13
39.93
58.37
77.97
97.79
117.61
137.73
158.42
179.52
200.25
219.35
235.28
246.46
251.56
249.64
240.49
224.84
204.38
181.48
158.64
137.97
120.79
107.59
98.12
91.64
87.15
83.53
79.67
74.67
67.94
59.24
48.60
36.10
21.79
5.61
-12.41
-32.06
-52.92
-74.33
-95.51
-115.56
-133.48
-148.43
-159.89
-168.13
-174.10
-179.15
-184.40
-190.10
-195.37
-198.54
-197.88
-192.39
-182.26
-168.83
-154.02
-139.70
-127.14
-116.79
-108.47
-101.70
-96.07
-91.41
-87.80
-85.29
-83.62
-82.17
-79.90
-75.81
-69.27
-60.32
-49.75
-38.89
-29.01
-21.00
-14.98
-10.41
-6.49
-2.60
1.31
4.76
7.03
7.68
6.82
5.09
3.31
2.06
1.40
1.00
0.32
-1.07
-3.35
-6.50
-10.45
-15.14
-20.46
-26.07
-31.28
-34.99
-36.01
-33.38
-26.75
-16.56
-3.90
9.77
23.05
34.90
44.69
52.15
57.16
59.73
59.99
58.29
55.16
51.28
47.28
43.63
40.62
38.40
37.05
36.56
36.83
37.56
38.42
39.05
39.18
38.64
37.34
35.28
32.53
29.30
25.93
22.76
19.97
17.43
14.71
11.33
7.07
2.15
-2.86
-7.30
-10.77
-13.38
-15.73
-18.64
-22.82
-28.59
-35.68
-43.24
-50.10
-55.07
-57.28
-56.42
-52.82
-47.21
-40.53
-33.52
-26.62
-19.94
-13.51
-7.42
-1.96
2.47
5.56
7.29
7.96
8.10
8.13
8.22
8.25
7.97
7.29
6.51
6.21
7.01
9.14
12.35
16.02
19.48
22.29
24.43
26.06
27.20
27.62
26.85
24.57
20.82
16.12
11.29
7.00
3.58
0.79
-1.90
-5.06
-8.95
-13.34
-17.57
-20.73
-21.96
-20.62
-16.49
-9.70
-0.78
9.43
20.03
30.10
39.00
46.40
52.28
56.85
60.40
63.24
65.69
68.10
70.79
74.00
77.75
81.89
86.02
89.78
92.88
95.27
97.10
98.68
100.44
102.73
105.86
109.90
114.64
119.48
123.41
125.15
123.33
116.73
104.55
86.63
63.59
36.66
7.52
-22.06
-50.43
-76.16
-97.95
-114.62
-125.11
-128.89
-126.24
-118.37
-107.28
-95.21
-84.17
-75.44
-69.48
-66.02
-64.38
-63.76
-63.42
-62.95
-62.07
-60.72
-58.93
-56.81
-54.57
-52.44
-50.65
-49.23
-48.01
-46.57
-44.44
-41.37
-37.49
-33.33
-29.48
-26.35
-23.93
-21.86
-19.63
-16.84
-13.31
-9.14
-4.81
-1.19
0.59
-0.52
-5.13
-12.97
-22.95
-33.57
-43.39
-51.57
-57.92
-62.66
-66.10
-68.33
-69.23
-68.58
-66.18
-61.83
-55.43
-46.93
-36.60
-25.03
-13.12
-1.73
8.65
18.01
26.74
35.30
43.93
52.58
60.96
68.79
75.83
81.81
86.45
89.46
90.61
90.03
88.16
85.54
82.58
79.25
75.13
69.66
62.51
53.88
44.45
35.23
27.15
20.81
16.41
13.79
12.71
12.99
14.68
18.13
23.82
32.12
43.00
55.79
69.28
82.10
93.14
101.94
108.65
113.64
117.10
118.75
118.04
114.53
108.24
99.73
89.78
78.98
67.53
55.25
41.89
27.54
12.69
-1.81
-15.12
-26.63
-36.09
-43.49
-48.86
-52.16
-53.32
-52.39
-49.67
-45.82
-41.62
-37.66
-34.09
-30.59
-26.61
-21.74
-16.07
-10.17
-4.80
-0.61
2.17
3.75
4.74
5.90
7.99
11.55
16.78
23.41
30.68
37.66
43.52
48.01
51.64
55.50
60.79
68.17
77.41
87.37
96.41
102.95
105.87
104.56
98.69
88.14
73.16
54.67
34.47
14.90
-1.70
-13.77
-20.77
-22.99
-21.10
-15.78
-7.81
1.51
10.06
14.95
13.28
3.26
-15.16
-40.08
-68.13
-95.58
-119.52
-138.74
-153.79
-166.38
-178.06
-189.04
-197.83
-201.78
-198.42
-186.65
-167.36
-143.15
-117.63
-94.63
-77.70
-69.56
-71.47
-82.54
-99.36
-116.35
-127.48
-128.25
-117.47
-97.75
-74.67
-55.04
-44.98
-48.06
-64.44
-90.69
-120.76
-147.72
-165.93
-172.74
-169.12
-158.86
-146.63
-136.22
-129.44
-126.25
-125.64
-126.60
-128.62
-131.44
-134.69
-137.49
-138.77
-137.65
-134.00
-128.54
-122.62
-117.32
-113.07
-109.15
-104.09
-96.34
-85.07
-70.58
-54.18
-37.66
-22.61
-10.02
-0.12
7.51
13.62
19.08
24.65
30.81
37.59
44.67
51.57
57.94
63.71
69.16
74.58
80.05
85.24
89.44
91.76
91.46
88.15
82.12
74.13
65.36
56.98
49.68
43.47
37.73
31.54
24.34
16.05
7.10
-1.96
-10.73
-19.19
-27.38
-35.24
-42.67
-49.63
-56.38
-63.52
-71.67
-80.85
-90.16
-97.80
-101.72
-100.33
-93.18
-80.96
-65.20
-47.64
-29.82
-12.89
2.28
15.04
24.85
31.44
34.90
35.84
35.24
34.17
33.52
33.76
34.92
36.69
38.71
40.69
42.59
44.65
47.25
50.78
55.49
61.34
67.86
74.20
79.26
81.98
81.65
78.05
71.54
62.84
52.97
42.98
33.97
27.05
23.31
23.68
28.68
38.30
51.73
67.45
83.57
98.17
109.81
117.82
122.36
124.16
124.11
122.85
120.65
117.38
112.81
106.84
99.71
91.96
84.36
77.71
72.75
70.07
70.05
72.85
78.26
85.76
94.69
104.48
114.82
125.83
137.89
151.10
164.79
177.38
186.53
189.98
186.44
176.08
160.50
142.10
123.15
105.29
89.29
75.34
63.44
53.54
45.55
39.01
33.05
26.49
18.33
8.11
-3.76
-16.22
-27.93
-37.66
-44.65
-48.70
-50.10
-49.49
-47.70
-45.53
-43.59
-42.21
-41.39
-41.05
-41.22
-42.19
-44.48
-48.57
-54.53
-61.77
-69.15
-75.45
-79.83
-82.27
-83.46
-84.41
-85.86
-87.88
-89.83
-90.83
-90.28
-88.49
-86.60
-86.31
-89.11
-95.64
-105.50
-117.31
-129.24
-139.46
-146.42
-149.03
-146.85
-140.28
-130.73
-120.32
-111.26
-104.95
-101.39
-99.22
-96.47
-91.51
-83.83
-74.07
-63.62
-53.83
-45.56
-39.14
-34.60
-31.97
-31.31
-32.51
-35.07
-38.14
-40.60
-41.43
-39.67
-34.63
-25.90
-13.41
2.45
20.90
40.92
61.60
82.33
102.82
122.69
141.06
156.46
167.14
171.88
170.64
164.71
156.11
146.71
137.53
128.45
118.64
107.22
93.82
78.78
62.99
47.51
33.25
20.90
10.79
2.99
-2.80
-7.12
-10.73
-14.25
-18.14
-22.57
-27.48
-32.79
-38.38
-44.14
-49.94
-55.52
-60.44
-64.14
-65.99
-65.40
-61.98
-55.54
-46.35
-35.02
-22.49
-9.79
2.17
12.73
21.54
28.33
32.82
34.74
34.05
31.05
26.47
21.35
16.65
13.00
10.47
8.75
7.34
5.89
4.33
2.77
1.42
0.41
-0.29
-0.83
-1.41
-2.35
-4.12
-7.36
-12.85
-21.29
-33.05
-47.85
-64.68
-81.95
-98.01
-111.53
-121.72
-128.26
-131.12
-130.41
-126.21
-118.78
-108.58
-96.39
-83.05
-69.25
-55.39
-41.68
-28.42
-16.11
-5.45
2.96
8.96
12.89
15.46
17.38
19.20
21.17
23.32
25.54
27.69
29.56
30.98
31.71
31.47
30.05
27.33
23.33
18.30
12.64
6.81
1.11
-4.44
-10.03
-15.73
-21.19
-25.58
-27.78
-26.85
-22.51
-15.21
-6.02
3.77
12.99
20.73
26.37
29.46
29.70
27.04
21.72
14.33
5.85
-2.53
-9.69
-14.75
-17.41
-17.97
-17.14
-15.71
-14.26
-13.05
-12.08
-11.40
-11.09
-11.32
-12.15
-13.41
-14.76
-15.88
-16.56
-16.72
-16.20
-14.56
-10.98
-4.51
5.44
18.68
34.04
49.65
63.50
74.16
81.20
85.19
87.32
88.80
90.30
91.82
92.83
92.70
91.16
88.52
85.46
82.72
80.66
79.13
77.52
75.13
71.50
66.69
61.17
55.49
49.98
44.54
38.74
32.13
24.59
16.45
8.31
0.66
-6.36
-12.92
-19.20
-24.96
-29.41
-31.42
-30.13
-25.43
-18.17
-9.81
-1.75
5.04
10.19
13.68
15.51
15.60
13.91
10.66
6.48
2.27
-1.16
-3.39
-4.63
-5.47
-6.55
-8.24
-10.37
-12.38
-13.63
-13.74
-12.72
-11.01
-9.18
-7.71
-6.86
-6.58
-6.72
-6.95
-6.82
-5.66
-2.65
2.93
11.43
22.62
35.65
49.30
62.29
73.60
82.53
88.67
91.83
92.06
89.70
85.46
80.21
74.73
69.45
64.24
58.57
51.86
43.82
34.57
24.78
15.28
6.84
-0.04
-5.26
-9.07
-11.95
-14.49
-17.28
-20.72
-24.96
-29.98
-35.51
-41.03
-45.69
-48.38
-48.05
-44.05
-36.51
-26.46
-15.45
-4.95
4.15
11.68
17.92
23.13
27.26
29.91
30.65
29.40
26.55
22.67
18.26
13.48
8.11
1.94
-4.96
-12.06
-18.47
-23.36
-26.37
-27.89
-28.84
-30.30
-33.07
-37.41
-43.08
-49.56
-56.30
-62.79
-68.47
-72.75
-75.13
-75.41
-73.83
-70.96
-67.42
-63.56
-59.40
-54.73
-49.56
-44.24
-39.50
-36.05
-34.10
-33.09
-31.92
-29.36
-24.69
-18.10
-10.63
-3.74
1.23
3.45
2.82
-0.11
-4.38
-8.88
-12.61
-14.88
-15.47
-14.65
-13.05
-11.50
-10.61
-10.58
-11.12
-11.59
-11.15
-9.06
-4.87
1.46
9.51
18.37
26.88
33.91
38.65
40.73
40.15
37.15
32.09
25.54
18.31
11.46
6.04
2.59
0.85
-0.29
-2.44
-6.99
-14.61
-24.94
-36.81
-48.69
-59.21
-67.46
-73.18
-76.70
-78.82
-80.51
-82.54
-85.02
-87.22
-87.67
-84.68
-76.92
-64.06
-46.79
-26.60
-5.30
15.40
34.18
50.11
62.61
71.48
76.81
79.10
79.19
78.04
76.53
75.25
74.35
73.56
72.40
70.36
67.12
62.65
57.16
51.05
44.80
38.84
33.33
28.15
22.79
16.62
9.12
0.26
-9.35
-18.82
-27.36
-34.75
-41.33
-47.70
-53.95
-59.43
-62.80
-62.60
-58.11
-49.72
-38.84
-27.40
-17.11
-8.99
-3.30
0.23
2.12
2.92
3.11
3.10
3.17
3.39
3.63
3.63
3.14
2.09
0.59
-1.16
-2.97
-4.77
-6.59
-8.53
-10.57
-12.65
-14.56
-16.09
-17.04
-17.24
-16.53
-14.76
-11.87
-7.87
-3.05
2.20
7.34
11.89
15.63
18.61
20.99
22.81
23.75
23.21
20.55
15.59
8.93
1.85
-4.11
-7.81
-8.92
-7.97
-5.99
-3.94
-2.40
-1.49
-1.10
-1.18
-1.88
-3.41
-5.90
-9.24
-13.01
-16.64
-19.56
-21.34
-21.70
-20.42
-17.36
-12.41
-5.68
2.46
11.28
19.86
27.28
32.80
36.06
37.08
36.29
34.38
32.16
30.41
29.69
30.14
31.50
33.27
34.82
35.67
35.51
34.21
31.74
28.14
23.62
18.56
13.43
8.65
4.36
0.36
-3.78
-8.35
-13.37
-18.40
-22.80
-25.93
-27.40
-27.14
-25.30
-22.20
-18.11
-13.30
-8.00
-2.38
3.24
8.44
12.64
15.21
15.55
13.48
9.29
3.91
-1.42
-5.47
-7.40
-7.14
-5.17
-2.42
0.16
1.84
2.25
1.27
-1.00
-4.40
-8.68
-13.41
-18.06
-22.11
-25.20
-27.27
-28.40
-28.71
-28.16
-26.59
-23.82
-19.87
-15.04
-9.84
-4.76
-0.08
4.19
8.25
12.28
16.28
19.93
22.72
24.17
24.19
23.21
22.13
21.88
22.95
24.95
26.81
27.29
25.59
21.93
17.34
13.16
10.25
8.55
7.18
5.00
1.30
-3.84
-9.70
-15.32
-19.92
-23.16
-24.99
-25.55
-24.91
-23.07
-20.05
-16.02
-11.28
-6.29
-1.59
2.32
4.99
6.11
5.54
3.43
0.14
-3.80
-7.85
-11.59
-14.60
-16.51
-16.97
-15.66
-12.49
-7.67
-1.71
4.69
10.81
16.01
19.82
22.03
22.66
21.94
20.13
17.52
14.33
10.74
7.02
3.48
0.51
-1.64
-2.98
-3.73
-4.24
-4.72
-5.07
-4.87
-3.60
-0.83
3.49
9.03
15.18
21.22
26.43
30.06
31.48
30.14
25.78
18.56
9.16
-1.27
-11.36
-19.92
-26.25
-30.31
-32.62
-33.94
-35.00
-36.27
-37.94
-39.91
-41.76
-42.85
-42.37
-39.58
-34.07
-25.93
-15.70
-4.21
7.61
18.85
28.69
36.33
41.27
43.43
43.40
42.17
40.73
39.52
38.23
36.16
32.72
27.93
22.61
17.81
14.34
12.21
10.79
9.13
6.47
2.59
-2.26
-7.45
-12.36
-16.41
-19.32
-21.05
-21.82
-22.05
-22.22
-22.68
-23.48
-24.41
-25.02
-24.88
-23.70
-21.52
-18.56
-15.04
-11.05
-6.46
-1.11
5.07
11.77
18.40
24.28
28.91
32.25
34.57
36.30
37.56
38.12
37.54
35.56
32.38
28.67
25.26
22.68
20.91
19.36
17.37
14.56
11.10
7.62
4.70
2.73
1.65
1.20
1.15
1.33
1.60
1.72
1.37
0.34
-1.18
-2.50
-2.59
-0.49
4.22
11.23
19.40
27.29
33.49
37.09
37.95
36.68
34.43
32.59
32.30
34.23
38.42
44.38
51.31
58.43
65.00
70.48
74.39
76.38
76.08
73.33
68.18
60.94
52.19
42.62
32.89
23.49
14.79
7.05
0.54
-4.40
-7.47
-8.47
-7.40
-4.44
0.14
5.92
12.46
19.20
25.44
30.43
33.39
33.68
30.95
25.42
17.91
9.79
2.63
-2.29
-4.46
-4.28
-2.86
-1.43
-0.87
-1.31
-2.32
-3.36
-4.14
-4.86
-6.02
-8.09
-11.21
-15.04
-18.92
-22.11
-24.08
-24.72
-24.39
-23.84
-23.91
-25.31
-28.30
-32.62
-37.61
-42.45
-46.35
-48.74
-49.21
-47.54
-43.75
-38.22
-31.79
-25.75
-21.53
-20.32
-22.60
-27.96
-35.23
-42.85
-49.45
-54.15
-56.68
-57.22
-56.15
-53.87
-50.90
-47.82
-45.35
-44.16
-44.49
-46.07
-48.03
-49.36
-49.40
-48.20
-46.57
-45.65
-46.38
-48.99
-52.90
-56.98
-60.06
-61.33
-60.52
-57.83
-53.61
-48.29
-42.20
-35.61
-28.84
-22.15
-15.74
-9.70
-4.04
1.12
5.40
8.28
9.29
8.36
6.00
3.16
0.87
-0.21
0.06
1.27
2.77
4.08
4.93
5.36
5.47
5.38
5.16
4.80
4.29
3.56
2.47
0.79
-1.66
-4.94
-8.85
-13.02
-16.95
-20.30
-22.80
-24.36
-24.88
-24.11
-21.77
-17.60
-11.74
-4.76
2.38
8.66
13.23
15.72
16.26
15.29
13.27
10.50
7.17
3.45
-0.22
-3.16
-4.56
-3.93
-1.42
2.06
5.04
6.12
4.53
0.43
-5.23
-11.21
-16.58
-21.06
-24.89
-28.47
-31.88
-34.81
-36.77
-37.51
-37.39
-37.26
-38.03
-40.06
-42.92
-45.48
-46.38
-44.53
-39.51
-31.61
-21.64
-10.79
-0.27
8.85
15.87
20.48
22.78
23.07
21.59
18.51
14.03
8.66
3.36
-0.64
-2.36
-1.44
1.61
5.67
9.63
12.71
14.70
15.72
15.95
15.33
13.45
9.59
3.22
-5.61
-15.97
-26.03
-33.57
-36.77
-34.88
-28.40
-18.82
-7.77
3.52
14.40
24.55
33.54
40.59
44.87
45.96
44.21
40.65
36.54
32.91
30.26
28.58
27.60
26.91
26.11
24.89
23.03
20.51
17.54
14.54
11.97
10.15
9.18
8.80
8.47
7.55
5.46
1.89
-2.98
-8.52
-13.72
-17.47
-18.97
-17.77
-13.78
-7.13
1.97
13.27
26.40
40.86
56.01
71.12
85.52
98.52
109.50
117.82
122.98
124.53
122.14
115.56
104.73
89.86
71.50
50.54
28.07
5.16
-17.25
-38.41
-57.62
-74.17
-87.44
-97.06
-103.14
-106.15
-106.69
-105.25
-102.11
-97.61
-92.45
-87.73
-84.57
-83.50
-83.88
-84.01
-81.71
-75.22
-63.96
-48.68
-31.04
-13.09
3.36
17.08
27.45
34.54
38.99
41.86
44.26
47.14
50.90
55.42
60.15
64.39
67.54
69.25
69.40
68.13
65.72
62.48
58.68
54.40
49.52
43.84
37.13
29.25
20.23
10.25
-0.35
-11.02
-21.01
-29.40
-35.24
-37.90
-37.25
-33.70
-28.08
-21.36
-14.25
-7.14
-0.09
6.94
13.88
20.46
26.27
30.79
33.62
34.63
33.98
32.17
29.82
27.50
25.62
24.19
22.94
21.56
19.88
18.04
16.50
15.73
16.02
17.29
19.12
20.90
22.06
22.22
21.31
19.62
17.72
16.36
16.27
17.95
21.59
27.20
34.47
42.98
52.13
61.13
69.09
75.15
78.77
79.75
78.33
74.96
70.18
64.39
57.91
50.95
43.67
36.28
28.99
22.04
15.56
9.64
4.25
-0.67
-5.07
-8.74
-11.36
-12.62
-12.38
-10.84
-8.47
-5.83
-3.52
-1.92
-1.25
-1.54
-2.64
-4.20
-5.70
-6.60
-6.40
-5.00
-2.74
-0.38
1.07
0.52
-2.88
-9.36
-18.21
-27.61
-34.99
-37.91
-35.02
-26.72
-15.11
-3.16
6.51
12.59
15.35
16.16
16.67
18.08
20.89
24.96
29.63
33.90
36.48
36.24
32.67
26.25
18.45
11.00
5.15
1.20
-1.27
-2.72
-3.00
-1.27
3.25
10.48
18.99
26.41
30.51
30.22
26.02
19.53
12.53
6.06
0.18
-5.76
-12.42
-19.83
-27.28
-33.50
-37.22
-37.63
-34.76
-29.36
-22.65
-15.82
-9.62
-4.32
0.34
4.68
8.90
12.90
16.37
18.94
20.41
20.80
20.17
18.65
16.35
13.54
10.79
8.92
8.79
10.84
14.83
19.78
24.41
27.58
28.73
27.82
25.01
20.34
13.61
4.64
-6.42
-18.89
-31.75
-44.06
-55.30
-65.66
-75.81
-86.52
-98.22
-110.68
-123.02
-134.01
-142.54
-147.95
-150.39
-150.70
-150.01
-149.27
-148.75
-147.95
-145.86
-141.39
-133.74
-122.75
-108.85
-93.07
-76.90
-62.08
-50.35
-43.04
-40.69
-42.83
-48.21
-55.05
-61.67
-66.86
-69.81
-70.03
-66.94
-59.84
-48.08
-31.38
-10.02
15.21
43.12
72.49
101.98
129.96
154.42
172.98
183.45
184.59
176.78
162.09
143.74
125.05
108.29
94.18
81.91
69.97
57.16
43.15
28.66
14.96
3.23
-5.91
-12.47
-16.89
-19.68
-21.23
-21.79
-21.72
-21.46
-21.47
-22.12
-23.53
-25.62
-28.16
-30.94
-33.92
-37.27
-41.27
-46.26
-52.42
-59.64
-67.34
-74.61
-80.32
-83.68
-84.47
-83.17
-80.75
-78.19
-76.01
-74.18
-72.34
-70.07
-67.21
-63.80
-59.93
-55.73
-51.42
-47.42
-44.54
-43.59
-44.91
-47.86
-50.77
-51.37
-47.66
-38.70
-25.08
-8.58
8.47
23.93
36.31
44.94
49.87
51.62
51.03
49.05
46.51
43.82
41.02
37.90
34.28
30.37
26.85
24.66
24.70
27.46
32.87
40.24
48.40
55.93
61.39
63.55
61.78
56.19
47.74
37.97
28.63
21.21
16.55
14.80
15.55
18.10
21.80
26.01
30.24
33.95
36.63
37.88
37.61
36.13
34.05
32.16
30.97
30.61
30.82
31.15
31.36
31.42
31.50
31.69
31.71
30.90
28.53
24.21
18.22
11.52
5.47
1.33
-0.28
0.46
2.71
5.42
7.71
9.06
9.29
8.36
6.27
3.03
-1.17
-5.92
-10.59
-14.42
-16.73
-17.09
-15.42
-12.11
-7.95
-3.96
-1.04
0.27
-0.11
-1.81
-4.29
-7.24
-10.63
-14.68
-19.59
-25.27
-31.34
-37.25
-42.53
-47.05
-50.88
-54.17
-56.93
-59.01
-60.26
-60.85
-61.25
-62.30
-64.67
-68.63
-73.77
-79.30
-84.55
-89.46
-94.70
-101.40
-110.53
-122.27
-135.69
-148.67
-158.46
-162.31
-158.06
-144.77
-122.91
-94.34
-62.02
-29.43
0.13
24.26
41.92
53.40
60.02
63.34
64.56
64.09
61.74
57.21
50.81
43.63
37.51
34.30
35.18
40.17
48.25
57.84
67.56
76.67
85.25
93.91
103.17
113.05
122.77
130.89
135.78
136.24
132.11
124.35
114.85
105.74
98.76
94.80
93.86
95.32
98.26
101.70
104.72
106.62
106.91
105.50
102.71
98.95
94.33
88.36
79.99
67.98
51.55
30.69
6.14
-20.96
-49.39
-77.87
-104.94
-128.93
-148.33
-162.19
-170.65
-174.81
-176.24
-176.15
-174.84
-171.75
-165.89
-156.47
-143.28
-126.74
-107.61
-86.80
-65.32
-44.28
-24.92
-8.26
5.25
15.96
24.74
32.36
38.88
43.50
45.02
42.65
36.77
28.92
21.16
15.01
10.78
7.56
3.83
-1.55
-8.81
-17.18
-25.49
-32.70
-38.27
-42.22
-44.76
-46.04
-45.97
-44.26
-40.63
-35.12
-28.08
-20.16
-12.17
-4.77
1.53
6.38
9.54
10.83
10.19
7.96
4.93
2.18
0.78
1.33
3.56
6.36
7.99
6.78
1.63
-7.53
-19.48
-32.08
-42.93
-50.06
-52.59
-50.89
-46.27
-40.46
-35.07
-30.99
-28.30
-26.40
-24.40
-21.49
-17.23
-11.57
-4.70
3.15
11.77
21.07
30.87
40.86
50.45
58.87
65.36
69.49
71.34
71.46
70.59
69.36
67.90
65.80
62.13
56.02
46.94
35.19
21.78
8.10
-4.59
-15.62
-25.00
-33.24
-40.95
-48.48
-55.84
-62.64
-68.33
-72.24
-73.64
-71.66
-65.57
-54.92
-39.96
-21.78
-2.18
16.74
33.15
45.75
54.01
58.09
58.65
56.75
53.60
50.43
48.12
47.08
46.96
46.78
45.24
41.18
34.08
24.33
13.17
2.23
-6.95
-13.45
-17.32
-19.47
-21.28
-24.12
-28.90
-35.77
-44.13
-52.69
-59.73
-63.51
-62.54
-56.15
-44.55
-28.85
-10.76
7.83
25.15
39.99
51.75
60.42
66.41
70.34
72.86
74.48
75.64
76.58
77.25
77.23
75.77
71.85
64.66
53.96
40.25
24.85
9.38
-4.60
-16.25
-25.50
-32.97
-39.56
-46.10
-53.10
-60.48
-67.68
-73.72
-77.48
-78.02
-74.92
-68.38
-59.15
-48.33
-37.11
-26.56
-17.49
-10.50
-5.93
-3.94
-4.44
-7.08
-11.21
-15.93
-20.33
-23.67
-25.58
-26.25
-26.30
-26.79
-28.63
-32.33
-37.50
-42.79
-46.09
-45.07
-37.99
-24.29
-5.01
17.39
39.46
57.78
69.82
74.48
72.38
65.32
55.73
46.00
38.11
33.42
32.82
36.63
44.50
55.32
67.25
78.03
85.54
88.47
86.59
80.70
72.27
62.79
53.45
44.91
37.34
30.66
24.68
19.20
14.15
9.43
4.91
0.48
-3.92
-8.16
-11.85
-14.46
-15.53
-15.05
-13.51
-11.88
-11.11
-11.73
-13.42
-15.02
-15.01
-12.15
-6.04
2.68
12.60
22.09
29.83
35.24
38.34
39.54
39.26
37.70
34.84
30.63
25.18
18.83
12.03
5.19
-1.50
-8.15
-15.00
-22.22
-29.68
-36.99
-43.45
-48.37
-51.13
-51.41
-49.11
-44.43
-37.77
-29.69
-20.83
-11.92
-3.65
3.45
9.08
13.35
16.74
19.95
23.68
28.43
34.28
40.91
47.65
53.74
58.61
61.99
63.86
64.29
63.25
60.53
55.97
49.72
42.42
35.11
28.73
23.76
19.90
16.30
12.11
7.09
1.85
-2.34
-4.13
-2.74
1.67
8.03
14.68
19.93
22.50
21.83
18.19
12.54
6.22
0.68
-2.86
-3.63
-1.35
3.68
10.78
18.96
27.10
34.16
39.29
42.03
42.26
40.28
36.66
32.23
27.82
24.06
21.30
19.56
18.56
17.91
17.14
15.76
13.34
9.70
4.98
-0.20
-4.79
-7.69
-8.04
-5.59
-0.88
4.95
10.56
14.76
16.92
17.00
15.44
13.04
10.68
9.17
9.15
10.92
14.32
18.79
23.48
27.52
30.33
31.70
31.78
30.84
29.01
26.27
22.62
18.21
13.39
8.60
4.14
-0.04
-4.19
-8.54
-13.16
-17.86
-22.53
-27.35
-32.82
-39.62
-48.09
-57.94
-68.12
-77.14
-83.54
-86.32
-85.16
-80.23
-72.02
-61.21
-48.48
-34.70
-20.81
-7.78
3.68
13.25
21.00
27.12
31.74
34.69
35.62
34.26
30.64
25.21
18.60
11.47
4.18
-3.11
-10.32
-17.23
-23.44
-28.49
-31.98
-33.73
-33.77
-32.32
-29.65
-26.15
-22.34
-18.92
-16.67
-16.24
-17.98
-21.74
-26.86
-32.26
-36.67
-38.99
-38.44
-34.89
-28.73
-20.79
-11.99
-3.07
5.58
13.86
21.78
29.28
36.13
41.98
46.53
49.72
51.91
53.86
56.46
60.51
66.44
74.04
82.60
91.09
98.49
104.00
107.04
107.29
104.62
99.15
91.32
81.97
72.07
62.41
53.36
44.77
36.35
27.99
20.16
13.75
9.76
8.79
10.68
14.54
19.07
23.03
25.61
26.61
26.33
25.37
24.35
23.61
23.22
22.87
22.08
20.35
17.45
13.46
8.73
3.80
-0.89
-5.04
-8.63
-11.95
-15.65
-20.72
-28.22
-38.98
-52.96
-69.07
-85.16
-98.62
-107.24
-109.98
-107.25
-100.74
-92.57
-84.50
-77.34
-70.93
-64.53
-57.46
-49.45
-40.79
-32.14
-24.04
-16.80
-10.38
-4.67
0.29
4.17
6.50
6.93
5.57
3.09
0.46
-1.30
-1.51
0.01
2.92
6.47
9.85
12.41
13.83
14.26
14.09
13.81
13.71
13.81
13.88
13.68
13.01
11.85
10.30
8.44
6.38
4.38
2.97
3.01
5.49
11.17
20.08
31.32
43.20
53.68
60.99
64.16
63.26
59.17
53.28
47.00
41.36
36.86
33.44
30.67
27.92
24.63
20.40
15.07
8.62
1.14
-7.30
-16.55
-26.28
-35.96
-44.79
-51.88
-56.48
-58.20
-57.22
-54.35
-50.89
-48.30
-47.76
-49.74
-53.76
-58.41
-61.87
-62.43
-59.12
-51.98
-42.02
-30.83
-20.11
-11.23
-5.05
-1.82
-1.27
-2.79
-5.59
-8.92
-12.14
-14.78
-16.58
-17.43
-17.45
-16.98
-16.48
-16.45
-17.24
-18.86
-21.02
-23.21
-24.94
-26.02
-26.62
-27.12
-27.99
-29.48
-31.63
-34.34
-37.41
-40.68
-43.94
-46.86
-48.87
-49.26
-47.39
-42.99
-36.38
-28.51
-20.64
-13.96
-9.20
-6.51
-5.60
-5.92
-6.97
-8.37
-9.86
-11.26
-12.49
-13.61
-14.84
-16.39
-18.20
-19.86
-20.56
-19.45
-16.08
-10.73
-4.37
1.65
6.20
8.71
9.26
8.25
6.13
3.13
-0.66
-5.13
-9.96
-14.53
-18.03
-19.65
-18.87
-15.60
-10.16
-3.29
4.15
11.37
17.83
23.29
27.80
31.53
34.54
36.62
37.23
35.65
31.33
24.28
15.26
5.79
-2.26
-7.22
-8.13
-5.12
0.56
6.90
11.71
13.28
10.84
4.87
-3.18
-11.30
-17.61
-20.87
-20.77
-17.86
-13.12
-7.60
-2.09
2.95
7.41
11.36
14.98
18.50
22.13
25.83
29.27
31.93
33.35
33.39
32.42
31.21
30.62
31.27
33.27
36.10
38.64
39.43
37.05
30.74
20.95
9.57
-0.56
-6.54
-6.60
-0.83
8.86
19.63
28.94
35.43
39.09
40.81
41.72
42.68
44.21
46.62
50.13
54.85
60.51
66.44
71.62
75.09
76.29
75.37
73.07
70.58
69.04
69.36
72.03
77.01
83.65
90.59
95.75
96.77
91.64
79.44
60.83
37.81
13.01
-11.31
-33.76
-53.85
-71.48
-86.41
-98.11
-106.01
-109.98
-110.65
-109.20
-106.90
-104.43
-101.62
-97.72
-91.76
-83.26
-72.51
-60.59
-48.92
-38.78
-30.97
-25.55
-22.10
-20.02
-18.95
-18.88
-20.09
-22.85
-27.14
-32.56
-38.37
-43.74
-47.87
-50.14
-50.24
-48.22
-44.65
-40.51
-37.11
-35.68
-37.04
-41.18
-47.11
-52.98
-56.63
-56.42
-51.76
-43.26
-32.51
-21.29
-10.97
-2.01
5.86
13.20
20.34
27.14
33.18
38.07
41.87
44.82
47.28
49.21
50.14
49.36
46.32
41.03
34.24
27.39
22.16
19.91
21.11
25.17
30.48
34.91
36.57
34.35
28.21
18.95
7.76
-4.24
-16.35
-28.15
-39.49
-50.17
-60.00
-68.77
-76.30
-82.31
-86.27
-87.45
-84.98
-78.28
-67.35
-52.97
-36.63
-20.22
-5.62
5.68
12.75
15.46
14.35
10.46
4.88
-1.40
-7.75
-13.80
-19.22
-23.53
-26.03
-26.05
-23.16
-17.45
-9.74
-1.36
5.92
10.33
10.41
5.34
-4.66
-18.30
-33.39
-47.41
-58.13
-64.20
-65.31
-62.02
-55.45
-46.75
-36.91
-26.80
-17.15
-8.51
-1.22
4.70
9.51
13.48
16.81
19.41
21.03
21.41
20.41
18.02
14.40
9.85
4.88
0.34
-2.69
-3.01
0.26
7.26
17.07
27.80
37.12
42.84
43.53
38.77
29.07
15.69
0.32
-15.14
-28.64
-38.34
-42.87
-41.61
-34.76
-23.29
-8.55
7.95
24.81
40.80
54.97
66.70
75.81
82.44
86.78
88.80
87.97
83.60
75.18
62.92
47.91
31.95
17.05
4.93
-3.31
-7.39
-7.77
-5.44
-1.74
2.03
4.92
6.54
7.05
6.89
6.45
5.76
4.55
2.27
-1.57
-7.04
-13.66
-20.25
-25.16
-26.78
-24.18
-17.56
-8.42
0.92
8.15
11.78
11.54
8.27
3.42
-1.57
-5.61
-8.14
-8.98
-8.28
-6.44
-3.93
-1.25
1.23
3.25
4.62
5.19
4.87
3.76
2.09
0.18
-1.78
-3.93
-6.63
-10.27
-14.99
-20.48
-26.08
-31.11
-35.09
-38.11
-40.75
-43.89
-48.35
-54.55
-62.24
-70.62
-78.51
-84.65
-88.20
-88.88
-86.97
-83.19
-78.33
-73.07
-67.81
-62.71
-57.78
-53.00
-48.48
-44.39
-40.94
-38.21
-36.06
-34.27
-32.75
-31.76
-31.78
-33.17
-35.64
-38.16
-39.14
-37.16
-31.52
-22.83
-12.86
-4.03
1.32
1.62
-3.39
-12.52
-23.32
-32.83
-38.33
-38.16
-32.13
-21.45
-8.21
5.51
18.02
28.33
35.95
40.73
42.77
42.47
40.76
38.91
38.26
39.72
43.35
48.35
53.33
56.97
58.45
57.86
55.95
53.79
52.18
51.48
51.44
51.51
51.23
50.40
49.14
47.64
45.97
43.78
40.45
35.28
27.91
18.55
8.11
-2.02
-10.36
-15.69
-17.42
-15.65
-11.04
-4.54
2.99
11.00
19.18
27.24
34.68
40.68
44.26
44.63
41.55
35.43
27.29
18.55
10.68
4.89
1.89
1.72
3.65
6.45
8.88
10.05
9.83
8.58
6.81
4.71
2.15
-1.07
-4.99
-9.33
-13.65
-17.65
-21.45
-25.41
-29.84
-34.66
-39.22
-42.49
-43.50
-41.81
-37.67
-32.07
-26.51
-22.65
-21.94
-25.21
-32.34
-42.09
-52.23
-60.08
-63.24
-60.26
-51.11
-37.02
-19.99
-2.08
15.12
30.72
44.21
55.29
63.63
68.91
71.04
70.26
67.18
62.58
57.26
51.80
46.51
41.43
36.42
31.37
26.36
21.84
18.55
17.22
18.28
21.51
26.15
31.09
35.41
38.69
41.10
43.09
45.14
47.45
50.09
53.28
57.39
63.06
70.69
80.09
90.29
99.73
106.86
110.71
111.12
108.67
104.22
98.51
91.97
84.86
77.43
70.12
63.34
57.40
52.35
48.08
44.44
41.34
38.77
36.60
34.64
32.57
30.15
27.30
24.06
20.33
15.79
10.02
2.69
-5.94
-15.02
-23.31
-29.68
-33.66
-35.48
-35.80
-35.30
-34.33
-32.89
-30.91
-28.65
-26.83
-26.38
-28.04
-31.96
-37.45
-43.34
-48.37
-51.71
-53.22
-53.45
-53.35
-53.84
-55.58
-58.67
-62.76
-67.19
-71.23
-74.23
-75.72
-75.43
-73.20
-69.01
-63.01
-55.46
-46.83
-37.65
-28.55
-20.13
-13.01
-7.60
-4.06
-2.13
-1.28
-0.90
-0.53
-0.13
0.25
0.70
1.75
4.27
9.01
16.11
24.74
33.51
40.94
46.15
49.10
50.33
50.44
49.85
48.66
46.98
45.16
43.78
43.38
44.15
45.77
47.67
49.31
50.50
51.21
51.38
50.63
48.22
43.44
35.98
26.12
14.58
2.11
-10.82
-24.09
-37.62
-50.97
-63.13
-72.75
-78.70
-80.60
-79.17
-75.94
-72.62
-70.46
-69.79
-70.19
-70.94
-71.44
-71.44
-70.98
-70.13
-68.79
-66.81
-64.19
-61.20
-58.50
-56.66
-55.88
-55.76
-55.54
-54.41
-52.03
-48.47
-44.12
-39.32
-34.21
-28.84
-23.28
-17.80
-12.65
-7.95
-3.61
0.60
4.89
9.26
13.44
17.06
19.82
21.55
22.26
22.07
21.22
20.10
19.19
18.97
19.70
21.29
23.29
25.14
26.33
26.61
25.82
23.89
20.77
16.51
11.42
6.05
1.24
-2.35
-4.42
-5.22
-5.43
-5.86
-7.17
-9.73
-13.51
-18.26
-23.62
-28.95
-33.59
-36.91
-38.48
-38.30
-36.87
-35.04
-33.60
-33.20
-33.92
-35.46
-37.26
-38.63
-39.02
-38.06
-35.77
-32.50
-28.90
-25.61
-23.00
-21.02
-19.26
-17.28
-14.88
-12.17
-9.33
-6.37
-2.94
1.43
6.95
13.14
18.80
22.47
23.18
21.00
17.06
13.21
11.09
11.43
13.92
17.44
20.86
23.51
25.46
27.11
28.75
30.23
31.02
30.72
29.29
27.27
25.47
24.47
24.28
24.38
24.09
23.07
21.46
19.80
18.62
18.13
18.21
18.57
18.95
19.20
19.15
18.61
17.25
14.75
10.95
5.96
0.12
-6.09
-12.10
-17.44
-21.77
-24.98
-27.30
-29.24
-31.49
-34.52
-38.41
-42.79
-46.94
-50.15
-52.00
-52.38
-51.36
-49.08
-45.77
-41.82
-37.91
-34.88
-33.39
-33.65
-35.10
-36.72
-37.28
-35.79
-31.83
-25.57
-17.75
-9.47
-2.08
3.19
5.51
4.86
2.25
-0.50
-1.27
1.46
8.06
17.62
28.28
38.08
45.59
50.36
52.71
53.45
53.33
52.87
52.23
51.35
50.11
48.23
45.41
41.34
35.94
29.42
22.47
16.00
10.91
7.88
7.08
8.27
10.83
13.97
16.85
18.59
18.36
15.69
10.67
4.08
-2.74
-8.31
-11.68
-12.66
-11.83
-10.26
-9.00
-8.83
-10.16
-12.90
-16.60
-20.49
-23.56
-24.92
-24.07
-21.10
-16.65
-11.68
-7.07
-3.46
-1.27
-0.65
-1.59
-3.75
-6.41
-8.56
-9.20
-7.69
-4.03
1.15
6.82
11.92
15.61
17.40
17.25
15.60
13.32
11.52
11.27
13.08
16.74
21.30
25.57
28.61
30.29
31.26
32.61
35.15
38.96
43.29
46.96
48.96
48.91
47.11
44.22
40.84
37.29
33.62
29.77
25.78
21.82
18.06
14.61
11.49
8.70
6.36
4.64
3.66
3.32
3.22
2.84
1.58
-0.86
-4.45
-8.68
-12.74
-15.93
-17.93
-19.01
-20.00
-21.99
-25.75
-31.44
-38.36
-45.12
-50.23
-52.71
-52.70
-51.40
-50.68
-52.32
-57.23
-65.13
-74.72
-84.25
-92.01
-96.79
-97.73
-94.25
-86.03
-73.31
-57.23
-39.76
-23.33
-9.84
-0.05
6.61
11.63
16.51
22.22
28.83
35.76
42.19
47.45
51.18
53.30
54.06
53.97
53.78
54.27
55.98
59.00
62.74
66.26
68.57
69.01
67.48
64.27
59.87
54.84
49.63
44.68
40.42
37.23
35.36
34.85
35.56
37.18
39.32
41.60
43.56
44.64
44.24
41.74
36.77
29.47
20.46
10.82
1.81
-5.49
-10.46
-13.23
-14.55
-15.55
-17.31
-20.40
-24.84
-30.12
-35.53
-40.39
-44.18
-46.56
-47.39
-46.73
-44.95
-42.73
-40.96
-40.55
-42.04
-45.36
-49.71
-53.74
-55.91
-55.00
-50.39
-42.39
-32.13
-21.24
-11.41
-3.93
0.77
3.18
4.58
6.46
9.96
15.41
22.25
29.26
35.21
39.34
41.54
42.22
41.82
40.51
38.14
34.59
30.08
25.34
21.32
18.73
17.64
17.27
16.42
13.88
9.06
2.26
-5.49
-12.73
-18.24
-21.36
-22.09
-21.07
-19.11
-17.00
-15.16
-13.62
-12.23
-10.80
-9.18
-7.51
-5.95
-4.73
-4.07
-4.11
-4.91
-6.35
-8.11
-9.70
-10.56
-10.32
-8.93
-6.65
-4.02
-1.54
0.41
1.62
1.90
1.01
-1.47
-5.78
-11.87
-19.06
-26.04
-31.23
-33.21
-31.31
-25.78
-17.85
-9.22
-1.52
4.23
7.81
9.82
11.31
13.37
16.82
22.05
29.00
37.29
46.24
55.11
63.22
70.06
75.48
79.60
82.63
84.73
85.98
86.33
85.87
84.79
83.37
81.85
80.14
77.87
74.56
69.81
63.55
56.17
48.41
41.23
35.52
31.88
30.31
30.09
29.93
28.37
24.39
17.83
9.54
1.01
-6.24
-11.28
-14.16
-15.74
-17.33
-20.01
-24.19
-29.42
-34.52
-38.14
-39.32
-37.87
-34.42
-29.96
-25.34
-20.90
-16.55
-12.08
-7.65
-3.89
-1.74
-2.03
-5.13
-10.71
-17.82
-25.18
-31.49
-35.81
-37.90
-38.25
-38.02
-38.63
-41.13
-45.80
-51.93
-58.00
-62.34
-63.62
-61.37
-56.08
-48.89
-41.15
-33.90
-27.67
-22.57
-18.60
-15.88
-14.77
-15.75
-18.90
-23.74
-29.26
-34.25
-37.80
-39.57
-39.76
-38.90
-37.53
-36.09
-34.78
-33.70
-32.81
-31.94
-30.78
-28.84
-25.63
-20.80
-14.25
-6.33
2.27
10.55
17.41
21.89
23.22
21.13
15.91
8.50
0.33
-6.96
-11.99
-14.17
-13.96
-12.70
-12.20
-13.83
-17.96
-23.70
-29.27
-32.79
-33.12
-30.32
-25.43
-19.86
-14.79
-10.68
-7.47
-4.85
-2.75
-1.41
-1.18
-2.19
-4.04
-6.05
-7.46
-7.84
-7.21
-5.82
-4.00
-1.95
-0.00
1.35
1.40
-0.38
-3.74
-7.45
-9.50
-7.91
-1.71
8.45
20.55
31.93
40.38
44.93
45.78
43.91
40.41
36.12
31.55
27.09
23.17
20.29
18.86
19.00
20.39
22.31
23.76
23.85
22.04
18.47
13.92
9.42
5.82
3.48
1.99
0.60
-1.41
-4.30
-7.82
-11.54
-15.31
-19.43
-24.21
-29.48
-34.21
-36.75
-35.63
-30.49
-22.52
-13.98
-7.21
-3.43
-2.28
-2.19
-1.37
1.20
5.33
9.98
13.94
16.42
17.19
16.42
14.43
11.55
7.97
3.96
-0.24
-4.26
-7.54
-9.46
-9.51
-7.51
-3.85
0.52
4.47
7.17
8.53
9.28
10.54
13.30
17.74
23.23
28.57
32.63
34.79
35.08
34.05
32.35
30.46
28.47
26.28
23.83
21.31
19.07
17.40
16.20
14.91
12.77
9.24
4.42
-0.99
-6.09
-10.22
-13.25
-15.37
-16.79
-17.34
-16.53
-13.88
-9.49
-4.46
-0.71
-0.43
-4.98
-14.23
-26.23
-37.83
-45.86
-48.37
-45.41
-38.84
-31.46
-25.76
-22.99
-22.85
-24.00
-24.95
-24.67
-22.93
-20.09
-16.71
-13.22
-9.83
-6.64
-3.88
-2.00
-1.47
-2.71
-5.64
-9.66
-13.68
-16.47
-17.05
-15.03
-10.81
-5.37
-0.03
4.10
6.55
7.62
8.28
9.73
12.77
17.45
23.13
28.69
33.21
36.27
38.06
39.10
39.88
40.64
41.15
40.99
39.76
37.37
34.02
30.17
26.27
22.50
18.78
14.76
10.15
4.83
-0.91
-6.60
-11.61
-15.32
-17.33
-17.41
-15.68
-12.59
-9.09
-6.39
-5.73
-7.97
-13.21
-20.64
-28.75
-35.77
-40.24
-41.62
-40.37
-37.80
-35.39
-34.27
-34.68
-35.94
-36.88
-36.44
-34.21
-30.53
-26.26
-22.22
-18.93
-16.47
-14.64
-13.38
-12.79
-13.16
-14.54
-16.51
-18.10
-18.11
-15.62
-10.44
-3.13
5.31
13.87
21.91
29.35
36.50
43.82
51.66
60.09
68.87
77.47
85.18
91.30
95.32
96.99
96.31
93.44
88.54
81.75
73.21
63.20
52.23
41.13
30.77
21.98
15.33
10.95
8.49
7.25
6.29
4.78
2.30
-1.15
-5.05
-8.70
-11.47
-12.94
-12.83
-10.95
-7.23
-1.81
4.81
11.60
17.12
19.89
18.99
14.56
7.86
0.74
-5.06
-8.68
-10.42
-11.40
-12.98
-15.94
-20.21
-24.97
-29.20
-32.20
-33.79
-34.29
-34.08
-33.53
-32.79
-32.07
-31.78
-32.45
-34.53
-38.11
-42.82
-47.85
-52.25
-55.27
-56.53
-56.07
-54.20
-51.23
-47.38
-42.74
-37.28
-31.01
-24.00
-16.44
-8.78
-1.63
4.28
8.36
10.40
10.81
10.48
10.50
11.77
14.57
18.55
22.85
26.41
28.44
28.62
27.17
24.63
21.60
18.54
15.57
12.49
8.89
4.30
-1.58
-8.68
-16.47
-23.98
-30.04
-33.43
-33.24
-29.12
-21.58
-12.13
-3.05
3.17
4.61
0.66
-7.76
-18.51
-29.08
-37.57
-43.17
-46.14
-47.32
-47.52
-47.14
-46.29
-44.88
-42.92
-40.65
-38.31
-36.19
-34.50
-33.30
-32.57
-32.15
-31.88
-31.69
-31.83
-32.81
-35.16
-39.13
-44.49
-50.56
-56.61
-62.18
-67.07
-71.15
-73.81
-73.89
-69.82
-60.40
-45.27
-25.46
-3.02
19.33
39.04
54.29
64.24
69.09
69.81
67.74
64.25
60.39
56.67
53.12
49.42
45.26
40.50
35.38
30.32
25.74
21.86
18.51
15.33
11.98
8.22
4.04
-0.46
-5.18
-10.17
-15.59
-21.67
-28.55
-36.05
-43.67
-50.46
-55.12
-56.26
-52.69
-43.81
-29.96
-12.41
6.76
25.15
40.57
51.64
57.94
59.93
58.70
55.52
51.54
47.59
44.21
41.73
40.29
39.87
40.16
40.54
40.20
38.45
34.96
29.98
24.27
18.86
14.60
11.92
10.62
9.98
9.06
7.05
3.72
-0.38
-3.91
-5.15
-2.47
4.99
16.93
31.89
47.78
62.62
75.12
84.91
92.27
97.67
101.44
103.69
104.47
104.04
102.88
101.56
100.48
99.71
98.97
97.81
95.77
92.58
88.28
83.27
78.15
73.60
70.10
67.69
65.96
64.15
61.34
56.75
49.84
40.54
29.38
17.36
5.96
-3.45
-9.97
-13.64
-15.47
-17.10
-20.04
-25.09
-31.95
-39.50
-46.28
-51.28
-54.21
-55.49
-55.81
-55.73
-55.40
-54.67
-53.45
-51.89
-50.44
-49.56
-49.32
-49.30
-48.65
-46.66
-43.10
-38.43
-33.58
-29.52
-26.87
-25.71
-25.59
-25.79
-25.58
-24.47
-22.21
-18.87
-14.67
-9.97
-5.09
-0.31
4.27
8.64
12.80
16.67
19.95
22.24
23.12
22.52
20.71
18.37
16.25
14.80
14.05
13.57
12.82
11.44
9.52
7.53
6.07
5.54
5.95
6.91
7.69
7.48
5.48
0.98
-6.40
-16.51
-28.63
-41.42
-53.31
-62.99
-69.76
-73.74
-75.52
-75.68
-74.38
-71.21
-65.50
-56.81
-45.37
-32.02
-17.96
-4.31
8.29
19.71
30.14
39.65
47.94
54.30
57.90
58.29
55.79
51.59
47.32
44.41
43.37
43.39
42.73
39.48
32.59
22.52
11.17
1.04
-5.73
-8.34
-7.42
-4.61
-1.66
0.31
1.18
1.52
2.02
2.99
4.20
5.04
5.03
4.09
2.66
1.40
0.85
1.22
2.37
3.96
5.59
6.89
7.48
7.08
5.50
2.84
-0.52
-4.07
-7.34
-10.30
-13.39
-17.52
-23.71
-32.68
-44.46
-58.28
-72.71
-86.11
-97.11
-105.08
-110.32
-113.79
-116.55
-119.12
-121.10
-121.29
-118.23
-110.85
-98.98
-83.36
-65.36
-46.47
-27.93
-10.58
5.06
18.69
30.12
39.22
46.02
50.72
53.69
55.50
56.76
57.97
59.30
60.52
61.04
60.16
57.50
53.17
47.82
42.49
38.19
35.70
35.31
36.79
39.40
42.17
44.16
44.81
44.13
42.72
41.45
41.04
41.83
43.58
45.66
47.41
48.46
48.77
48.65
48.43
48.29
48.07
47.38
45.72
42.87
38.93
34.38
29.67
25.04
20.25
14.68
7.64
-1.33
-12.32
-25.03
-38.95
-53.49
-67.91
-81.38
-93.01
-102.09
-108.36
-112.25
-114.82
-117.36
-120.66
-124.58
-127.86
-128.44
-124.26
-114.07
-97.97
-77.46
-54.99
-33.14
-14.02
1.22
12.23
19.30
22.94
23.79
22.51
19.99
17.14
14.79
13.40
12.83
12.44
11.36
8.92
5.01
0.23
-4.35
-7.61
-8.80
-7.81
-5.23
-2.05
0.62
1.76
0.67
-2.98
-9.09
-17.03
-25.64
-33.44
-38.83
-40.62
-38.35
-32.40
-23.89
-14.28
-4.92
3.23
9.70
14.50
17.93
20.38
22.26
23.89
25.45
26.93
28.08
28.28
26.78
22.88
16.18
6.94
-3.77
-14.19
-22.34
-26.59
-26.39
-22.54
-16.90
-11.84
-9.31
-10.26
-14.37
-20.41
-26.69
-31.67
-34.25
-33.67
-29.44
-21.24
-9.10
6.42
24.04
42.05
58.71
72.71
83.52
91.20
96.18
98.69
98.72
96.26
91.55
85.41
79.13
73.96
70.52
68.61
67.33
65.78
63.51
60.86
58.67
57.72
58.22
59.61
60.83
60.79
58.82
54.82
49.12
42.24
34.59
26.51
18.38
10.83
4.98
2.30
4.43
12.63
27.27
47.47
71.15
95.46
117.42
134.51
145.11
148.46
144.60
134.06
117.71
96.76
72.64
46.84
20.57
-5.45
-31.15
-56.65
-81.94
-106.34
-128.45
-146.50
-159.01
-165.41
-166.50
-164.23
-161.19
-159.80
-161.60
-167.02
-175.35
-184.96
-193.65
-198.91
-198.36
-190.38
-174.59
-152.22
-125.91
-99.12
-75.07
-55.92
-42.33
-33.61
-28.33
-24.94
-22.19
-19.34
-16.08
-12.38
-8.47
-4.64
-1.10
2.07
5.00
7.98
11.28
14.94
18.63
21.71
23.43
23.07
20.11
14.42
6.27
-3.64
-14.26
-24.41
-33.11
-39.86
-44.67
-47.89
-49.68
-49.84
-47.66
-42.36
-33.49
-21.41
-7.23
7.53
21.47
33.82
44.46
53.72
62.11
69.89
76.96
82.90
87.25
89.58
89.71
87.70
83.75
78.16
71.25
63.38
55.09
46.91
39.33
32.56
26.58
21.06
15.70
10.32
5.03
0.07
-4.38
-8.51
-12.82
-18.06
-24.75
-32.88
-41.71
-49.95
-56.09
-58.84
-57.40
-51.61
-42.02
-29.77
-16.34
-3.34
7.92
16.64
22.64
26.18
27.60
27.20
25.31
22.35
19.01
16.08
14.18
13.30
12.94
12.35
11.12
9.44
8.00
7.48
8.12
9.59
11.24
12.47
13.08
13.27
13.36
13.53
13.66
13.42
12.39
10.43
7.76
5.06
3.38
3.87
7.50
14.69
25.21
38.14
52.21
66.20
79.16
90.50
99.80
106.70
110.79
111.83
109.93
105.73
100.27
94.58
89.34
84.67
80.35
76.09
71.79
67.59
63.55
59.59
55.26
50.15
44.17
37.79
31.73
26.60
22.46
18.76
14.71
9.71
3.68
-2.98
-9.77
-16.43
-22.91
-29.25
-35.30
-40.61
-44.57
-46.74
-47.07
-45.91
-43.73
-40.92
-37.61
-33.72
-29.19
-24.07
-18.67
-13.41
-8.72
-4.82
-1.63
1.14
3.85
6.81
10.13
13.72
17.37
20.87
24.11
27.03
29.70
32.16
34.49
36.66
38.49
39.65
39.80
38.68
36.31
33.06
29.54
26.37
24.03
22.79
22.71
23.78
25.98
29.31
33.76
39.24
45.55
52.36
59.02
64.61
67.92
67.77
63.28
54.38
41.79
26.87
11.24
-3.82
-17.61
-29.94
-40.78
-49.92
-56.88
-61.16
-62.80
-62.65
-62.26
-63.22
-66.28
-70.92
-75.74
-79.30
-81.07
-81.86
-83.30
-86.94
-93.29
-101.66
-110.70
-119.30
-127.00
-133.91
-140.03
-144.56
-145.96
-142.52
-133.40
-119.44
-102.91
-86.74
-73.21
-63.09
-55.35
-47.97
-39.07
-27.86
-15.01
-2.24
8.64
16.48
21.25
23.81
25.31
26.52
27.55
27.98
27.19
24.73
20.46
14.44
6.93
-1.70
-10.70
-18.94
-25.10
-28.07
-27.47
-23.94
-18.87
-13.77
-9.64
-6.60
-4.06
-1.33
1.87
5.21
8.08
9.99
11.04
11.81
13.09
15.36
18.56
22.06
25.13
27.09
27.66
26.92
25.02
22.13
18.37
13.94
9.20
4.70
1.03
-1.48
-2.85
-3.46
-3.83
-4.34
-5.05
-5.76
-6.17
-6.17
-5.91
-5.70
-5.82
-6.29
-6.84
-7.06
-6.70
-5.85
-4.87
-4.17
-3.99
-4.30
-4.85
-5.36
-5.73
-5.90
-5.82
-5.36
-4.29
-2.57
-0.60
0.79
0.70
-1.36
-4.91
-8.57
-10.48
-9.11
-3.89
4.44
14.13
23.06
29.56
32.96
33.69
32.95
32.19
32.65
34.86
38.32
41.28
41.08
34.93
21.06
-0.22
-25.85
-50.67
-68.72
-75.35
-68.77
-50.67
-25.50
0.98
23.47
38.29
43.80
40.32
29.75
15.02
-0.64
-14.40
-24.50
-30.57
-33.45
-34.41
-34.55
-34.07
-32.41
-28.76
-22.79
-14.94
-6.52
0.73
5.21
5.98
3.17
-2.12
-8.11
-12.89
-15.09
-14.28
-10.97
-6.26
-1.27
3.29
7.04
9.87
11.52
11.66
10.06
7.03
3.56
1.10
0.97
3.69
8.72
14.71
20.14
23.98
26.12
27.22
28.22
29.86
32.36
35.44
38.50
40.92
42.23
42.13
40.54
37.49
33.19
27.93
21.91
15.19
7.68
-0.61
-9.40
-17.90
-25.06
-29.84
-31.69
-31.00
-28.88
-26.86
-26.22
-27.51
-30.38
-33.97
-37.32
-40.09
-42.48
-45.01
-47.90
-50.76
-52.62
-52.47
-49.92
-45.41
-40.06
-34.99
-30.84
-27.58
-24.58
-21.12
-16.71
-11.24
-4.87
2.08
9.29
16.30
22.45
26.95
29.14
28.69
25.78
20.92
14.82
8.30
2.17
-2.84
-5.95
-6.58
-4.52
-0.06
5.88
12.13
17.53
21.41
23.61
24.42
24.23
23.42
22.29
21.09
20.04
19.32
18.86
18.59
18.39
18.30
18.41
18.70
18.86
18.36
16.64
13.45
9.05
3.97
-1.36
-6.80
-12.50
-18.74
-25.52
-32.49
-39.12
-44.95
-49.83
-54.03
-58.07
-62.57
-68.10
-74.93
-82.94
-91.51
-99.69
-106.43
-110.90
-112.76
-112.33
-110.41
-108.09
-106.32
-105.60
-105.66
-105.48
-103.58
-98.58
-89.71
-77.14
-61.95
-45.65
-29.65
-14.82
-1.38
10.86
22.19
32.71
42.38
51.01
58.34
64.07
67.76
68.80
66.66
60.98
51.94
40.18
26.72
12.67
-1.07
-14.02
-26.13
-37.54
-48.30
-58.16
-66.49
-72.42
-75.16
-74.24
-69.64
-61.62
-50.68
-37.40
-22.71
-7.90
5.37
15.53
21.75
24.39
24.96
25.34
26.74
28.98
30.59
29.54
24.50
15.58
4.45
-6.34
-14.55
-19.18
-20.81
-21.40
-23.46
-29.06
-39.33
-54.08
-72.00
-90.95
-108.22
-120.88
-126.27
-122.74
-110.31
-90.87
-67.59
-43.78
-21.58
-1.42
17.55
36.43
55.61
74.25
90.77
103.56
111.63
114.76
113.29
107.80
99.21
88.75
77.96
68.38
61.14
56.56
54.09
52.59
50.55
46.45
39.06
27.72
12.80
-4.13
-20.38
-32.88
-39.21
-38.50
-31.83
-21.62
-10.44
0.45
11.74
25.72
44.98
70.71
101.56
133.78
162.38
183.03
193.60
194.32
187.12
174.40
158.05
139.27
119.07
98.68
79.78
63.92
51.99
43.81
38.30
34.05
29.99
25.71
21.36
17.34
13.98
11.48
10.00
9.71
10.67
12.58
14.65
15.54
13.83
8.55
-0.14
-10.72
-20.35
-25.57
-23.23
-11.50
9.44
37.32
68.25
97.71
121.62
137.31
143.99
142.78
136.25
127.66
120.01
115.46
114.92
117.99
123.31
128.81
132.16
131.07
123.68
108.94
86.99
59.30
28.51
-2.18
-29.87
-52.70
-70.20
-83.10
-92.63
-99.90
-105.42
-109.06
-110.25
-108.45
-103.43
-95.43
-85.13
-73.40
-61.17
-49.24
-38.14
-28.16
-19.32
-11.44
-4.14
2.98
10.32
18.08
26.34
35.05
44.17
53.70
63.70
74.30
85.57
97.57
110.35
123.87
137.88
151.83
164.83
175.85
183.97
188.68
189.96
188.10
183.50
176.51
167.32
156.15
143.25
128.84
112.95
95.41
76.03
55.08
33.56
13.21
-4.10
-17.02
-25.48
-30.71
-34.78
-39.71
-46.71
-55.94
-66.84
-78.85
-91.96
-106.70
-123.66
-142.71
-162.65
-181.50
-197.33
-209.19
-217.49
-223.75
-229.59
-236.03
-242.92
-249.27
-253.70
-255.04
-252.57
-246.19
-236.45
-224.60
-212.47
-201.99
-194.44
-189.67
-186.03
-180.97
-172.37
-159.74
-144.69
-130.42
-120.11
-115.45
-115.74
-118.21
-119.20
-115.57
-105.69
-89.39
-67.50
-41.14
-11.47
20.07
51.51
80.22
103.66
120.06
129.23
132.56
132.46
131.36
130.94
131.86
133.89
136.43
138.90
141.10
143.10
145.04
146.82
147.92
147.45
144.40
138.09
128.47
116.12
102.02
87.13
72.10
57.19
42.62
28.74
16.05
4.90
-4.76
-13.50
-22.14
-31.19
-40.57
-49.59
-57.36
-63.30
-67.44
-70.33
-72.75
-75.34
-78.43
-81.95
-85.49
-88.24
-89.19
-87.23
-81.69
-72.61
-60.97
-48.39
-36.53
-26.50
-18.55
-12.31
-7.25
-3.24
-0.55
0.27
-1.15
-4.74
-10.04
-16.45
-23.40
-30.52
-37.55
-44.26
-50.32
-55.41
-59.45
-62.66
-65.36
-67.63
-69.08
-68.83
-66.06
-60.51
-53.01
-45.33
-39.68
-37.87
-40.68
-47.63
-57.21
-67.41
-76.16
-81.59
-82.17
-76.88
-65.44
-48.56
-27.87
-5.49
16.61
37.09
55.45
71.72
86.03
98.37
108.60
116.74
123.23
128.75
133.78
138.11
140.72
140.16
135.28
126.02
113.52
99.79
86.90
76.15
67.79
61.17
55.35
49.67
44.10
39.16
35.57
33.83
33.97
35.60
38.09
40.90
43.87
47.23
51.43
56.92
63.91
72.26
81.61
91.39
101.01
109.70
116.47
120.07
119.15
112.63
100.20
82.51
61.11
37.97
14.94
-6.72
-26.47
-44.32
-60.50
-75.06
-87.83
-98.37
-106.13
-110.67
-111.79
-109.60
-104.54
-97.35
-88.85
-79.78
-70.67
-61.77
-53.02
-44.21
-34.96
-24.82
-13.37
-0.33
14.15
29.55
44.91
59.09
70.99
79.80
85.15
87.07
85.98
82.51
77.38
71.22
64.32
56.73
48.29
39.01
29.16
19.37
10.29
2.42
-4.11
-9.50
-14.03
-17.81
-20.86
-23.17
-25.01
-26.89
-29.56
-33.64
-39.39
-46.35
-53.47
-59.22
-62.03
-60.75
-54.94
-44.97
-31.90
-17.10
-1.87
12.69
25.75
36.79
45.48
51.78
55.90
58.25
59.20
58.87
56.98
53.01
46.41
36.89
24.62
10.20
-5.40
-21.08
-35.66
-48.02
-57.44
-63.69
-67.25
-69.08
-70.35
-72.00
-74.60
-78.31
-83.09
-88.81
-95.40
-102.53
-109.40
-114.71
-116.81
-114.31
-106.60
-94.23
-78.62
-61.70
-45.09
-29.78
-16.14
-4.07
6.46
15.22
21.75
25.68
27.01
26.32
24.56
22.80
21.82
21.94
22.93
24.14
24.75
24.13
22.04
18.71
14.69
10.57
6.58
2.54
-2.00
-7.63
-14.73
-23.41
-33.43
-44.37
-55.52
-66.03
-74.74
-80.37
-81.74
-78.04
-69.26
-56.18
-40.26
-23.24
-6.68
8.21
20.71
30.41
37.12
40.81
41.73
40.48
37.99
35.32
33.28
32.21
31.76
31.29
30.10
27.70
23.98
19.10
13.47
7.66
2.38
-1.70
-4.14
-5.01
-4.93
-4.95
-6.10
-9.06
-13.80
-19.57
-25.16
-29.22
-30.55
-28.35
-22.35
-12.91
-0.97
12.00
24.50
35.29
43.77
50.09
54.81
58.57
61.77
64.37
66.10
66.66
65.92
63.95
60.83
56.52
50.79
43.49
34.80
25.28
15.86
7.35
-0.00
-6.77
-14.06
-22.89
-33.33
-44.05
-52.53
-55.98
-52.88
-43.89
-31.99
-21.36
-15.65
-16.39
-22.49
-30.67
-36.81
-37.17
-29.22
-11.86
14.61
48.60
87.23
126.50
161.89
189.43
206.76
213.68
211.96
204.37
193.45
180.81
166.99
151.91
135.68
118.93
102.67
87.67
73.83
60.25
46.00
31.05
16.82
5.73
0.08
0.77
6.76
15.41
23.68
29.20
30.85
28.52
22.38
12.60
-0.44
-15.57
-30.56
-42.68
-49.85
-51.87
-50.65
-49.49
-51.66
-58.95
-70.95
-85.45
-99.64
-111.39
-120.13
-126.69
-132.74
-139.87
-148.93
-159.78
-171.52
-182.81
-192.44
-199.70
-204.62
-207.84
-210.36
-213.14
-216.69
-220.88
-225.07
-228.22
-229.25
-227.50
-222.88
-215.92
-207.49
-198.59
-189.91
-181.73
-173.57
-164.25
-151.88
-134.33
-109.84
-77.90
-39.81
1.46
41.93
77.88
106.88
128.25
142.76
151.79
156.59
157.87
156.00
151.35
144.67
136.99
129.30
122.14
115.39
108.41
100.33
90.50
78.71
65.33
51.11
36.93
23.50
11.19
-0.03
-10.37
-20.12
-29.55
-38.86
-48.31
-58.25
-68.82
-79.54
-89.06
-95.21
-95.67
-88.79
-74.44
-54.18
-30.86
-7.58
13.07
29.69
41.94
50.27
55.44
58.13
58.78
57.52
54.41
49.57
43.39
36.54
29.87
24.05
19.41
15.88
13.19
11.28
10.44
11.17
13.94
18.76
25.23
32.61
40.11
47.00
52.64
56.39
57.83
57.06
54.87
52.75
52.40
55.19
61.59
71.01
82.02
92.91
102.28
109.28
113.69
115.61
115.27
112.76
108.16
101.63
93.54
84.61
75.57
67.04
59.13
51.51
43.63
34.99
25.58
15.79
6.37
-1.95
-8.61
-13.56
-17.21
-20.36
-23.95
-28.74
-35.14
-43.07
-52.16
-61.89
-71.65
-80.70
-87.91
-91.88
-91.21
-85.12
-73.97
-59.37
-43.68
-29.05
-16.76
-6.91
1.16
8.12
14.09
18.66
21.26
21.80
21.10
20.71
22.28
26.93
34.73
44.74
55.45
65.34
73.37
79.17
82.89
84.91
85.61
85.22
83.85
81.54
78.33
74.17
68.89
62.24
54.01
44.33
33.78
23.42
14.53
8.27
5.44
6.27
10.42
17.01
24.79
32.27
37.87
40.30
38.74
33.10
24.04
12.81
0.98
-9.91
-18.74
-25.02
-28.97
-31.47
-33.72
-36.88
-41.61
-47.79
-54.55
-60.65
-64.97
-67.00
-67.01
-65.86
-64.59
-64.07
-64.76
-66.78
-69.99
-74.08
-78.50
-82.32
-84.23
-82.75
-76.72
-65.76
-50.54
-32.66
-14.15
3.12
18.00
30.35
40.80
50.28
59.52
68.59
76.85
83.36
87.30
88.46
87.38
85.14
82.95
81.72
81.79
82.86
84.23
84.96
84.26
81.61
76.86
70.29
62.41
53.79
44.82
35.66
26.26
16.66
7.19
-1.45
-8.37
-12.93
-15.15
-15.82
-16.20
-17.54
-20.51
-24.96
-30.11
-34.97
-38.74
-41.06
-41.92
-41.50
-40.03
-37.85
-35.44
-33.36
-32.09
-31.78
-32.16
-32.73
-33.20
-33.66
-34.56
-36.38
-39.11
-42.12
-44.37
-44.93
-43.60
-41.00
-38.29
-36.59
-36.47
-37.78
-39.91
-42.13
-43.79
-44.37
-43.25
-39.71
-33.03
-22.78
-9.06
7.34
25.08
42.53
58.09
70.54
79.31
84.58
87.27
88.75
90.37
92.98
96.54
100.18
102.51
102.30
98.94
92.74
84.63
75.80
67.17
59.06
51.31
43.48
35.22
26.40
17.15
7.65
-2.09
-12.38
-23.75
-36.71
-51.39
-67.13
-82.62
-96.03
-105.62
-110.25
-109.65
-104.40
-95.54
-84.23
-71.35
-57.44
-42.79
-27.52
-11.76
4.33
20.44
36.10
50.58
63.09
72.99
80.07
84.58
87.05
87.96
87.43
85.29
81.23
75.24
67.84
59.93
52.38
45.63
39.38
32.72
24.71
14.88
3.56
-8.12
-18.70
-26.98
-32.33
-34.96
-35.61
-35.31
-35.07
-35.78
-38.16
-42.68
-49.64
-58.93
-70.25
-82.95
-96.21
-108.90
-119.64
-126.96
-129.67
-127.19
-119.91
-109.08
-96.33
-83.14
-70.36
-58.25
-46.73
-35.90
-26.11
-17.94
-11.92
-8.26
-6.90
-7.53
-9.69
-12.76
-15.88
-17.99
-17.99
-15.20
-9.52
-1.73
6.74
14.25
19.37
21.41
20.51
17.54
13.74
10.19
7.39
5.16
2.78
-0.61
-5.61
-12.43
-20.77
-30.05
-39.53
-48.46
-56.13
-61.91
-65.45
-66.83
-66.61
-65.63
-64.66
-64.02
-63.41
-62.14
-59.55
-55.41
-50.03
-44.13
-38.42
-33.30
-28.72
-24.34
-19.75
-14.60
-8.76
-2.31
4.39
10.76
16.08
19.73
21.48
21.66
21.07
20.67
21.20
22.82
25.05
27.16
28.45
28.70
28.15
27.39
26.96
27.11
27.77
28.57
29.12
29.04
28.22
26.73
24.76
22.51
20.12
17.54
14.56
10.91
6.41
1.21
-4.17
-9.05
-12.74
-14.93
-15.66
-15.29
-14.18
-12.57
-10.52
-8.04
-5.25
-2.49
-0.25
1.13
1.60
1.48
1.33
1.67
2.73
4.37
6.30
8.15
9.79
11.28
12.82
14.60
16.75
19.36
22.52
26.24
30.33
34.40
37.84
40.13
41.16
41.38
41.70
43.17
46.56
52.16
59.62
68.27
77.32
86.08
94.02
100.77
105.99
109.30
110.37
109.02
105.17
98.92
90.44
80.01
68.14
55.73
43.84
33.40
24.79
17.64
10.93
3.58
-4.87
-13.99
-22.65
-29.61
-34.23
-36.75
-38.06
-39.15
-40.58
-42.33
-43.97
-44.98
-45.03
-44.05
-42.01
-38.84
-34.30
-28.17
-20.47
-11.49
-1.88
7.48
15.81
22.51
27.20
29.79
30.31
28.88
25.66
20.99
15.46
9.79
4.80
1.11
-1.16
-2.56
-4.20
-7.39
-13.20
-21.89
-32.98
-45.48
-58.47
-71.38
-83.84
-95.29
-104.56
-110.15
-110.94
-106.95
-99.59
-90.80
-82.09
-73.71
-64.78
-54.32
-42.38
-30.51
-21.10
-16.14
-16.10
-19.82
-25.06
-29.71
-32.46
-32.90
-31.18
-27.61
-22.57
-16.51
-10.21
-4.61
-0.66
0.93
-0.17
-3.86
-9.70
-16.93
-24.52
-31.40
-36.64
-39.73
-40.71
-39.88
-37.72
-34.54
-30.56
-25.98
-21.16
-16.66
-12.98
-10.36
-8.54
-6.87
-4.69
-1.69
1.95
5.64
8.73
10.90
12.17
12.92
13.61
14.60
16.06
18.09
20.77
24.24
28.57
33.56
38.56
42.56
44.50
43.72
40.30
35.15
29.68
25.30
22.95
22.84
24.61
27.65
31.51
35.97
40.95
46.26
51.41
55.60
58.05
58.22
56.02
51.73
45.92
39.10
31.61
23.52
14.68
4.95
-5.59
-16.58
-27.18
-36.33
-43.00
-46.60
-47.32
-46.25
-45.06
-45.44
-48.36
-53.75
-60.43
-66.66
-70.83
-71.97
-69.98
-65.34
-58.81
-51.03
-42.49
-33.68
-25.26
-17.93
-12.24
-8.37
-5.95
-4.26
-2.57
-0.40
2.27
5.13
7.68
9.45
10.17
9.83
8.70
7.30
6.37
6.72
8.93
13.22
19.19
25.77
31.50
34.88
34.90
31.43
25.38
18.46
12.67
9.70
10.47
14.93
22.26
31.28
40.79
49.91
58.05
64.80
69.83
72.75
73.29
71.41
67.44
61.94
55.55
48.70
41.53
33.93
25.75
16.91
7.50
-2.14
-11.61
-20.44
-28.21
-34.54
-39.24
-42.37
-44.32
-45.75
-47.50
-50.31
-54.56
-60.06
-65.98
-70.98
-73.48
-72.25
-66.85
-57.79
-46.38
-34.25
-22.76
-12.68
-4.20
2.77
8.27
12.17
14.24
14.51
13.53
12.18
11.39
11.68
12.98
14.63
15.84
16.04
15.20
13.86
12.92
13.40
15.92
20.54
26.57
32.75
37.55
39.68
38.61
34.77
29.40
24.23
20.82
20.15
22.48
27.50
34.47
42.54
50.77
58.26
64.11
67.57
68.22
66.01
61.36
54.91
47.38
39.24
30.67
21.62
12.00
1.80
-8.80
-19.46
-29.79
-39.33
-47.56
-53.85
-57.62
-58.53
-56.69
-52.85
-48.23
-44.22
-41.91
-41.67
-43.13
-45.36
-47.22
-47.85
-46.83
-44.20
-40.17
-34.96
-28.64
-21.36
-13.55
-5.98
0.30
4.41
5.90
5.07
2.79
0.13
-1.98
-2.95
-2.59
-1.00
1.54
4.69
8.20
11.96
16.17
21.17
27.21
34.12
41.20
47.39
51.63
53.26
52.29
49.32
45.23
40.86
36.69
32.87
29.30
25.96
22.98
20.66
19.40
19.43
20.74
23.06
25.87
28.71
31.14
32.88
33.69
33.42
31.87
28.98
24.86
19.90
14.66
9.77
5.77
3.04
1.78
1.99
3.57
6.43
10.48
15.64
21.70
28.44
35.57
42.98
50.67
58.71
66.87
74.40
80.01
82.14
79.44
71.19
57.56
39.52
18.51
-3.82
-25.71
-45.13
-59.81
-67.47
-66.52
-56.64
-39.20
-17.13
5.84
26.19
41.65
51.61
57.16
60.32
63.23
67.34
72.93
78.94
83.18
82.98
76.21
62.29
42.83
21.26
1.60
-13.15
-22.24
-27.26
-30.92
-35.35
-40.70
-45.09
-45.77
-40.92
-30.81
-17.67
-4.41
6.85
15.68
23.09
30.45
38.40
46.39
52.96
56.70
56.86
53.66
47.78
39.88
30.30
19.31
7.53
-3.81
-13.15
-19.43
-22.59
-23.80
-24.69
-26.46
-29.17
-31.91
-33.72
-34.57
-35.80
-39.62
-47.75
-60.39
-75.82
-91.14
-103.55
-111.69
-115.90
-117.86
-119.50
-122.00
-125.21
-127.89
-128.36
-125.33
-118.52
-108.74
-97.44
-85.97
-74.89
-63.75
-51.44
-36.62
-18.30
3.69
28.35
53.18
74.20
86.65
86.38
71.89
45.57
13.71
-15.49
-34.82
-40.86
-34.77
-21.31
-6.10
6.83
16.31
23.39
29.74
35.86
40.40
40.79
34.77
21.96
4.46
-13.64
-27.82
-34.93
-34.40
-28.39
-20.71
-15.19
-14.46
-19.41
-29.49
-43.34
-59.10
-74.51
-86.84
-93.47
-92.69
-84.73
-71.92
-57.99
-46.43
-39.20
-36.08
-35.41
-35.33
-35.08
-35.22
-36.99
-41.23
-47.41
-53.63
-57.34
-56.55
-50.67
-40.72
-28.95
-17.91
-9.66
-5.28
-4.85
-7.75
-13.11
-19.97
-27.25
-33.59
-37.22
-36.25
-29.31
-16.20
1.71
21.64
40.10
54.01
61.58
63.00
60.23
56.25
53.98
55.13
59.36
63.90
64.27
55.52
34.20
0.06
-43.08
-87.87
-125.36
-147.70
-150.48
-133.87
-102.12
-61.87
-19.80
19.21
52.78
80.63
103.34
120.96
132.58
136.71
132.60
121.33
105.85
89.91
76.34
65.88
57.27
48.69
39.31
30.14
23.28
20.23
20.42
20.92
17.87
8.52
-7.07
-25.90
-43.30
-55.13
-59.41
-56.92
-50.55
-43.93
-40.08
-40.55
-45.44
-53.64
-63.43
-73.05
-80.90
-85.58
-85.84
-80.55
-68.86
-50.55
-26.34
1.81
31.04
58.20
80.57
96.40
104.75
105.20
97.37
80.89
55.83
23.34
-13.97
-52.29
-87.47
-116.01
-135.64
-145.61
-146.04
-137.61
-121.20
-97.91
-69.29
-37.37
-4.45
27.38
56.66
82.83
106.11
127.03
145.90
162.30
174.91
181.67
180.26
168.61
145.81
112.64
71.84
27.83
-14.32
-50.21
-77.29
-95.30
-105.76
-110.77
-112.09
-110.72
-107.40
-103.52
-101.19
-102.78
-109.53
-120.49
-132.46
-141.21
-143.32
-137.64
-125.66
-110.48
-95.27
-81.97
-70.64
-59.93
-48.03
-33.63
-16.39
3.04
23.54
43.92
63.46
81.90
99.20
115.08
128.82
139.20
144.95
145.28
140.22
130.62
117.68
102.28
84.65
64.36
40.69
13.31
-17.19
-49.18
-80.29
-108.07
-130.68
-147.24
-157.85
-163.50
-165.52
-165.44
-164.74
-164.75
-166.60
-170.94
-177.87
-186.97
-197.52
-208.62
-219.61
-230.10
-240.11
-250.03
-260.46
-271.89
-284.22
-296.31
-305.76
-309.43
-304.29
-288.49
-262.16
-227.32
-187.35
-145.91
-106.11
-70.05
-38.75
-12.27
10.03
29.23
46.62
63.29
79.85
96.26
111.92
126.06
138.10
148.00
156.23
163.54
170.60
177.57
184.02
189.02
191.53
190.79
186.66
179.56
170.21
159.08
146.28
131.53
114.68
96.25
77.67
61.16
49.09
43.26
44.31
51.61
63.61
78.51
94.81
111.59
128.42
145.05
161.17
176.10
188.82
198.09
202.87
202.71
198.13
190.54
182.01
174.56
169.54
167.19
166.63
166.32
164.58
160.10
152.22
140.86
126.41
109.59
91.33
72.53
53.90
35.65
17.64
-0.70
-19.98
-40.57
-62.31
-84.43
-105.61
-124.32
-139.02
-148.61
-152.63
-151.46
-146.22
-138.42
-129.60
-120.66
-111.87
-102.87
-93.06
-81.93
-69.41
-55.95
-42.51
-30.26
-20.14
-12.60
-7.46
-4.06
-1.64
0.29
1.76
2.52
2.36
1.43
0.26
-0.47
-0.45
0.04
0.10
-1.32
-4.80
-10.10
-15.88
-20.02
-20.05
-13.81
-0.21
20.51
46.72
76.03
106.02
134.92
161.69
185.75
206.46
222.82
233.67
238.18
236.48
229.75
219.88
208.73
197.42
186.11
174.24
161.11
146.36
130.29
113.66
97.51
82.61
69.28
57.15
45.32
32.77
18.67
2.76
-14.64
-32.76
-50.56
-66.84
-80.42
-90.12
-94.92
-94.12
-87.56
-75.64
-59.16
-39.06
-16.04
9.34
36.41
63.85
89.53
110.82
125.37
132.06
131.55
126.00
118.25
110.65
104.32
99.04
93.85
87.85
80.80
73.02
65.07
57.28
49.63
41.92
34.16
26.77
20.48
16.12
14.17
14.73
17.34
21.39
26.03
30.39
33.74
35.59
35.87
35.08
34.35
35.08
38.30
44.02
51.06
57.36
60.89
60.65
57.12
51.90
46.69
42.39
38.59
33.88
26.78
16.54
3.61
-10.67
-24.74
-37.42
-48.33
-57.66
-66.04
-74.09
-82.45
-91.34
-100.74
-110.27
-119.26
-127.14
-133.66
-139.12
-144.35
-150.17
-156.96
-164.19
-170.45
-173.80
-172.52
-165.77
-153.94
-138.60
-121.98
-106.33
-93.39
-84.07
-78.49
-76.31
-76.90
-79.55
-83.54
-88.07
-92.36
-95.72
-97.78
-98.62
-98.59
-98.18
-97.72
-97.26
-96.55
-95.25
-92.85
-88.78
-82.47
-73.47
-61.76
-47.80
-32.44
-16.57
-0.81
14.74
30.33
46.24
62.69
79.54
96.47
112.95
128.26
141.34
150.91
155.86
155.66
150.76
142.35
131.95
120.73
109.15
96.97
83.67
68.85
52.46
34.64
15.47
-5.11
-27.34
-51.28
-76.78
-103.45
-130.97
-159.23
-188.55
-219.44
-252.09
-285.56
-317.35
-343.21
-358.13
-357.80
-340.29
-306.92
-262.03
-211.52
-161.00
-114.36
-73.38
-38.28
-8.78
15.30
33.97
47.30
55.76
60.09
60.98
58.81
53.72
45.87
35.77
24.34
12.76
2.04
-7.15
-14.47
-19.75
-22.84
-23.57
-21.93
-18.10
-12.34
-4.67
5.20
17.86
33.75
52.82
74.20
96.39
117.59
136.24
151.30
162.33
169.28
172.23
171.28
166.67
159.05
149.65
140.05
131.69
125.28
120.48
115.96
110.00
101.14
88.71
73.09
55.26
36.55
18.15
0.98
-14.26
-27.00
-36.96
-44.49
-50.78
-57.39
-65.22
-73.46
-79.47
-79.78
-71.84
-55.71
-34.38
-12.59
5.18
16.58
21.91
23.16
22.52
21.19
19.20
16.21
12.33
8.43
5.64
4.62
5.00
5.71
5.35
3.11
-0.81
-5.21
-8.47
-9.39
-7.98
-5.66
-4.74
-7.42
-14.59
-25.09
-35.78
-42.49
-41.42
-30.31
-9.44
18.58
49.66
79.41
104.41
123.00
135.35
142.99
147.77
150.95
152.67
152.16
148.49
141.39
131.66
120.93
110.76
101.90
93.76
84.72
72.96
57.36
38.05
16.29
-6.03
-27.10
-45.61
-60.99
-73.33
-83.32
-92.19
-100.97
-110.25
-119.43
-126.52
-128.62
-122.97
-108.21
-85.21
-57.01
-27.75
-1.30
19.88
34.92
44.00
47.53
45.65
38.34
26.07
10.27
-6.66
-22.04
-33.70
-40.76
-43.60
-43.53
-41.94
-39.73
-37.05
-33.48
-28.44
-21.74
-13.89
-6.03
0.45
4.41
5.43
4.07
1.66
0.00
0.77
5.14
13.62
26.00
41.37
58.36
75.19
90.06
101.45
108.39
110.63
108.57
102.99
94.89
85.21
74.82
64.39
54.45
45.29
37.00
29.47
22.41
15.57
8.75
1.81
-5.35
-12.73
-20.39
-28.29
-36.29
-44.09
-51.27
-57.32
-61.83
-64.54
-65.47
-64.91
-63.19
-60.47
-56.61
-51.09
-43.37
-33.26
-21.12
-8.01
4.61
15.24
22.79
26.74
27.07
24.10
18.22
9.84
-0.51
-12.03
-23.55
-33.73
-41.35
-45.65
-46.57
-44.78
-41.51
-38.06
-35.46
-34.10
-33.67
-33.28
-31.91
-28.80
-23.85
-17.73
-11.52
-6.12
-1.69
2.64
8.49
17.51
30.49
46.81
64.35
80.33
92.06
97.89
97.61
92.09
82.80
71.25
58.80
46.73
36.19
28.04
22.45
18.79
15.69
11.69
5.89
-1.56
-9.83
-17.86
-25.27
-32.71
-41.32
-51.94
-64.14
-76.18
-85.72
-90.97
-91.50
-88.32
-83.06
-76.89
-70.02
-61.57
-50.68
-37.34
-22.82
-9.31
1.08
7.18
9.11
7.87
4.64
0.15
-5.46
-12.38
-20.57
-29.46
-37.85
-44.12
-46.99
-45.84
-41.10
-34.09
-26.40
-19.35
-13.51
-8.69
-4.39
-0.27
3.59
6.87
9.41
11.60
14.55
19.67
28.27
40.97
57.54
76.95
97.79
118.63
138.28
155.89
170.79
182.24
189.42
191.38
187.47
177.66
162.81
144.51
124.69
105.21
87.48
72.19
59.16
47.43
35.33
21.08
3.43
-17.79
-41.39
-65.13
-86.43
-103.36
-115.22
-122.78
-127.66
-131.68
-135.98
-140.59
-144.46
-145.90
-143.26
-135.58
-122.93
-106.49
-87.89
-68.77
-50.41
-33.74
-19.62
-9.06
-3.16
-2.78
-8.06
-18.12
-31.16
-44.89
-57.30
-67.10
-73.82
-77.58
-78.71
-77.38
-73.71
-67.96
-60.74
-52.99
-45.59
-38.95
-32.75
-26.09
-17.93
-7.59
4.79
18.36
31.96
44.69
56.34
67.52
79.36
93.06
109.35
128.08
147.97
166.92
182.34
192.00
194.58
190.00
179.18
163.66
145.11
125.03
104.64
84.91
66.53
49.85
34.78
20.80
7.18
-6.72
-21.11
-35.64
-49.47
-61.65
-71.25
-77.74
-81.13
-82.09
-81.86
-82.18
-85.01
-92.15
-104.63
-122.06
-142.48
-162.39
-177.84
-185.69
-184.70
-175.89
-161.96
-146.07
-130.63
-116.76
-104.50
-93.56
-83.87
-75.82
-69.87
-66.04
-63.68
-61.62
-58.72
-54.39
-48.67
-42.35
-36.23
-30.75
-25.64
-19.97
-12.68
-3.18
7.98
18.93
26.91
29.18
24.18
12.36
-3.79
-20.44
-33.53
-39.96
-38.36
-29.22
-14.49
3.11
20.83
36.41
48.49
56.71
61.55
64.01
65.17
65.88
66.62
67.66
69.21
71.52
74.91
79.51
85.18
91.47
97.81
103.87
109.65
115.57
122.14
129.59
137.49
144.80
150.20
152.52
151.13
146.07
137.98
127.81
116.57
105.24
94.55
84.95
76.39
68.27
59.57
49.25
36.65
21.74
5.06
-12.51
-30.13
-47.14
-62.91
-76.74
-87.88
-95.62
-99.63
-100.13
-97.86
-93.80
-88.82
-83.39
-77.54
-70.96
-63.29
-54.40
-44.47
-33.98
-23.53
-13.49
-3.79
6.18
17.35
30.50
45.81
62.59
79.45
94.81
107.25
115.85
120.21
120.25
116.16
108.43
98.02
86.38
75.01
65.04
56.63
48.90
40.38
29.73
16.39
0.80
-15.84
-32.05
-46.53
-58.42
-67.34
-73.32
-76.89
-79.09
-81.42
-85.43
-92.10
-101.30
-111.67
-121.04
-127.37
-129.45
-127.48
-122.89
-117.67
-113.58
-111.46
-111.23
-112.06
-112.93
-113.03
-111.94
-109.54
-105.75
-100.47
-93.48
-84.68
-74.24
-62.80
-51.32
-40.94
-32.58
-26.58
-22.61
-19.76
-16.89
-13.03
-7.77
-1.40
5.23
11.06
15.38
18.21
20.42
23.49
28.81
36.98
47.46
58.55
67.90
73.29
73.30
67.82
57.99
45.84
33.67
23.37
15.91
11.14
8.05
5.36
2.14
-1.89
-6.54
-11.62
-17.40
-24.57
-33.89
-45.47
-58.38
-70.98
-81.36
-88.31
-91.81
-92.95
-93.39
-94.76
-98.13
-103.90
-111.70
-120.47
-128.70
-134.74
-137.32
-136.06
-131.62
-125.64
-120.17
-116.95
-116.68
-118.80
-121.55
-122.53
-119.47
-110.89
-96.45
-76.90
-53.75
-28.81
-3.90
19.42
39.91
56.51
68.59
76.18
80.06
81.59
82.28
83.28
84.97
87.08
88.85
89.52
88.58
86.00
82.16
77.71
73.21
68.77
63.91
57.57
48.67
36.57
21.47
4.54
-12.44
-27.60
-39.44
-47.12
-50.58
-50.43
-47.86
-44.40
-41.52
-40.17
-40.54
-42.18
-44.31
-46.37
-48.22
-49.98
-51.70
-52.98
-52.99
-50.67
-45.28
-36.76
-25.98
-14.43
-3.74
4.93
11.34
15.99
19.73
23.19
26.24
28.16
27.88
24.56
17.88
8.17
-3.76
-16.79
-29.55
-40.41
-47.66
-49.89
-46.48
-38.02
-26.09
-12.81
-0.10
10.69
18.95
24.54
27.60
28.40
27.37
25.21
22.73
20.76
19.90
20.32
21.83
23.96
26.18
28.02
29.26
29.92
30.29
30.70
31.25
31.53
30.56
27.14
20.38
10.26
-2.11
-14.60
-24.65
-29.92
-28.89
-21.25
-7.91
9.31
28.14
46.44
62.61
75.73
85.50
91.99
95.41
95.98
94.06
90.18
85.14
79.77
74.66
69.97
65.41
60.47
54.76
48.31
41.49
34.89
28.95
23.79
19.08
14.20
8.45
1.22
-7.78
-18.44
-30.13
-41.72
-51.69
-58.57
-61.31
-59.65
-54.17
-46.01
-36.40
-26.39
-16.51
-7.01
2.00
10.39
17.94
24.48
30.02
34.72
38.80
42.34
45.18
46.91
47.13
45.62
42.55
38.44
33.98
29.79
26.23
23.31
20.83
18.52
16.14
13.53
10.50
6.82
2.23
-3.35
-9.67
-16.06
-21.54
-25.06
-25.86
-23.52
-18.16
-10.25
-0.59
9.80
19.79
28.34
34.63
38.22
39.15
37.77
34.62
30.27
25.22
19.89
14.64
9.74
5.31
1.32
-2.39
-5.93
-9.23
-12.00
-13.77
-14.22
-13.43
-11.87
-10.32
-9.60
-10.24
-12.27
-15.22
-18.21
-20.17
-20.17
-17.70
-12.87
-6.42
0.60
7.10
12.51
16.85
20.75
24.95
29.97
35.81
42.05
48.18
53.89
59.22
64.39
69.47
74.21
78.07
80.42
80.96
79.76
77.22
73.79
69.80
65.28
60.16
54.33
47.81
40.70
33.16
25.43
17.85
10.97
5.46
2.01
1.04
2.64
6.51
12.13
18.91
26.23
33.45
39.84
44.68
47.37
47.62
45.54
41.49
35.95
29.33
21.94
14.13
6.39
-0.64
-6.26
-9.92
-11.38
-10.75
-8.45
-5.09
-1.36
2.01
4.38
5.31
4.57
2.21
-1.52
-6.16
-11.16
-15.82
-19.40
-21.25
-20.99
-18.73
-15.07
-10.90
-7.04
-3.93
-1.46
0.88
3.68
7.35
11.98
17.39
23.28
29.33
35.34
41.20
46.87
52.41
57.91
63.45
69.01
74.41
79.36
83.58
86.98
89.61
91.58
92.74
92.61
90.38
85.19
76.42
64.06
48.73
31.61
14.34
-1.30
-13.69
-21.62
-24.63
-23.03
-17.75
-10.01
-0.95
8.61
18.24
27.77
37.32
47.11
57.49
68.58
79.95
90.31
97.72
100.25
96.91
88.16
75.51
60.52
43.81
24.77
2.34
-23.73
-51.91
-78.99
-101.07
-115.06
-119.74
-115.82
-105.34
-90.67
-73.75
-55.83
-37.61
-19.38
-1.24
16.94
35.45
54.50
74.18
94.26
114.16
132.77
148.39
158.67
160.88
152.64
132.85
102.52
64.96
25.13
-11.75
-41.78
-63.40
-77.41
-86.07
-92.06
-97.60
-104.47
-114.55
-129.75
-151.43
-179.48
-211.57
-242.98
-267.80
-280.96
-280.11
-266.46
-244.00
-217.44
-190.59
-165.30
-141.40
-117.76
-93.38
-68.05
-42.54
-17.67
6.56
30.68
55.21
80.42
106.00
131.10
154.72
175.57
192.99
208.16
222.29
235.47
246.89
254.72
256.52
250.28
234.39
209.68
181.76
156.57
137.54
125.57
118.55
112.18
101.69
81.61
48.70
6.16
-41.89
-92.25
-140.46
-181.26
-209.69
-222.68
-222.95
-216.49
-206.12
-195.83
-190.61
-192.51
-201.23
-215.37
-218.15
-198.18
-179.54
-174.63
-177.66
-185.82
-195.62
-203.13
-204.50
-196.91
-181.73
-162.04
-136.85
-106.58
-74.28
-42.08
-11.81
14.84
36.15
48.95
51.54
48.09
43.36
40.14
40.59
45.59
54.97
67.90
82.32
96.34
110.64
125.30
138.87
150.09
157.95
161.89
161.58
156.18
145.10
129.37
110.39
89.17
66.41
41.26
11.49
-25.65
-71.95
-126.02
-181.83
-229.83
-260.17
-265.88
-246.59
-208.13
-160.24
-113.22
-74.71
-48.14
-32.69
-25.74
-24.30
-27.57
-35.10
-45.52
-56.24
-64.05
-66.52
-62.28
-52.52
-39.85
-29.10
-23.87
-24.97
-30.77
-38.19
-44.69
-48.60
-51.20
-43.38
-21.67
10.46
44.46
72.90
93.71
103.85
108.00
108.30
104.53
93.46
72.11
43.29
10.61
-21.55
-49.37
-69.37
-80.19
-81.37
-74.82
-62.94
-47.91
-31.71
-15.43
0.73
18.19
38.47
63.03
91.38
121.27
148.93
169.32
177.67
170.76
148.62
114.16
72.98
31.29
-5.46
-33.71
-52.35
-62.21
-65.41
-64.47
-62.18
-61.01
-62.72
-67.54
-73.72
-78.07
-77.00
-68.06
-50.95
-27.74
-1.84
23.25
44.81
61.14
71.36
75.07
72.62
65.37
55.86
47.40
42.89
43.57
48.33
54.11
57.24
54.91
46.16
31.75
13.47
-6.84
-27.76
-48.36
-67.99
-86.21
-102.90
-118.55
-134.04
-150.21
-166.96
-182.84
-195.06
-200.20
-195.44
-179.40
-152.70
-117.80
-78.33
-38.34
-1.42
29.64
53.29
69.12
77.73
80.46
78.91
74.80
69.59
64.41
60.00
56.65
54.20
52.11
49.72
46.57
42.80
39.06
36.29
35.17
35.80
37.55
39.47
40.64
40.54
39.22
37.07
34.68
32.58
31.14
30.41
30.14
29.90
29.28
28.23
27.13
26.74
27.82
30.72
35.22
40.68
46.42
52.08
57.57
62.83
67.56
71.07
72.62
71.78
68.85
64.82
61.12
59.14
59.80
63.52
70.29
79.80
91.61
105.10
119.43
133.52
146.33
157.18
165.89
172.75
178.15
182.23
184.61
184.63
181.68
175.74
167.53
158.34
149.55
142.11
136.28
131.69
127.60
123.23
118.00
111.52
103.61
94.25
83.55
71.70
58.89
45.26
30.86
15.53
-0.90
-18.41
-36.64
-54.81
-71.88
-86.89
-99.42
-109.75
-118.99
-128.73
-140.77
-156.72
-177.70
-204.04
-235.09
-269.13
-303.39
-334.62
-359.88
-377.27
-386.42
-388.27
-384.41
-376.13
-363.92
-347.29
-325.29
-297.34
-263.92
-226.77
-188.35
-151.09
-116.70
-85.61
-57.26
-30.49
-4.23
22.13
48.54
74.46
99.13
121.66
141.27
157.40
169.95
179.38
186.53
192.34
197.45
201.97
205.64
208.21
209.85
211.29
213.45
216.92
221.23
224.65
224.63
218.61
205.01
183.80
156.56
125.84
94.35
64.19
36.55
11.83
-10.11
-29.62
-47.12
-62.94
-77.20
-89.70
-100.06
-107.89
-113.11
-116.17
-117.80
-118.71
-119.10
-118.78
-117.41
-115.19
-113.17
-113.12
-116.91
-125.63
-139.03
-155.35
-171.78
-185.21
-193.01
-193.77
-187.57
-176.16
-162.36
-149.54
-140.91
-138.78
-143.97
-155.36
-169.86
-182.87
-189.36
-185.39
-169.53
-143.34
-110.76
-76.68
-45.17
-18.47
3.18
20.61
34.75
46.06
54.50
59.98
62.72
63.27
62.22
59.88
56.25
51.27
45.06
38.01
30.71
23.62
16.79
9.93
2.53
-5.85
-15.20
-24.91
-33.69
-39.80
-41.45
-37.30
-27.06
-11.71
6.62
25.23
41.56
53.83
61.47
64.98
65.49
64.27
62.35
60.26
57.99
55.10
51.01
45.26
37.81
29.11
19.94
11.15
3.27
-3.56
-9.66
-15.53
-21.61
-28.18
-35.43
-43.45
-52.25
-61.53
-70.50
-77.88
-82.11
-82.05
-77.42
-68.95
-58.13
-46.50
-35.06
-24.03
-13.08
-1.88
9.46
20.22
29.39
36.07
39.90
41.09
40.35
38.58
36.71
35.58
35.94
38.54
44.05
52.84
64.81
79.19
94.44
108.51
119.28
125.12
125.32
120.25
111.18
99.89
88.15
77.45
68.87
63.07
60.47
61.20
65.05
71.50
79.69
88.69
97.53
105.43
111.83
116.34
118.78
119.24
118.10
115.98
113.57
111.41
109.64
108.02
106.09
103.44
100.08
96.39
93.04
90.52
88.86
87.51
85.40
81.44
74.82
65.42
53.81
41.15
28.83
18.08
9.63
3.51
-0.85
-4.51
-8.69
-14.43
-22.36
-32.45
-44.06
-56.11
-67.50
-77.46
-85.79
-92.85
-99.21
-105.37
-111.42
-117.14
-122.32
-126.98
-131.39
-135.83
-140.18
-143.71
-145.26
-143.73
-138.64
-130.31
-119.76
-108.19
-96.49
-84.98
-73.51
-61.75
-49.53
-36.99
-24.42
-11.95
0.50
13.27
26.71
40.94
55.60
70.03
83.44
95.12
104.59
111.57
115.83
117.17
115.50
110.98
104.15
95.77
86.66
77.43
68.36
59.42
50.45
41.40
32.49
24.23
17.19
11.70
7.58
4.15
0.62
-3.45
-7.94
-12.31
-16.08
-19.37
-22.85
-27.27
-32.78
-38.47
-42.49
-42.87
-38.50
-29.62
-17.81
-5.33
5.78
14.29
20.05
23.72
26.25
28.45
30.71
32.91
34.72
35.91
36.53
37.07
38.15
40.29
43.69
48.23
53.48
59.10
64.87
70.89
77.57
85.53
95.36
107.26
120.81
134.84
147.68
157.52
162.70
161.80
153.68
137.90
115.23
88.21
60.97
37.94
22.07
13.24
8.29
2.55
-7.56
-22.61
-39.81
-54.63
-63.23
-64.31
-59.34
-51.26
-42.75
-35.05
-28.19
-21.89
-16.66
-13.93
-15.37
-21.68
-31.60
-41.85
-47.96
-45.89
-33.49
-11.57
16.34
45.02
69.05
84.38
89.10
83.62
70.07
51.46
30.80
10.59
-7.46
-22.38
-33.79
-41.84
-47.03
-50.10
-51.80
-52.91
-54.04
-55.63
-57.99
-61.20
-65.16
-69.64
-74.34
-78.90
-82.98
-86.25
-88.41
-89.12
-87.94
-84.48
-78.57
-70.39
