1494232537.00
64.000000
-0.00
-0.00
-0.00
-0.00
-0.00
-0.00
-0.00
-0.00
-0.00
-0.00
0.00
0.01
0.01
-0.00
-0.03
-0.05
-0.05
0.00
0.13
0.36
0.66
1.01
1.37
1.72
2.06
2.40
2.79
3.24
3.80
4.42
5.06
5.66
6.20
6.68
7.15
7.68
8.31
9.14
10.09
11.04
11.88
12.56
13.14
13.76
14.65
15.96
17.91
20.32
22.90
25.38
27.58
29.57
31.68
34.32
37.81
42.54
48.15
54.10
59.83
64.97
69.58
74.14
79.34
85.71
93.76
103.00
112.62
121.73
129.77
136.75
143.30
150.75
157.77
166.64
177.95
191.79
206.97
220.57
228.25
225.36
208.53
176.87
132.76
80.05
23.07
-34.94
-92.44
-149.16
-205.23
-260.37
-313.74
-363.87
-409.83
-450.91
-486.50
-515.74
-537.23
-549.22
-549.96
-538.37
-514.21
-478.67
-433.88
-382.45
-327.02
-269.84
-212.63
-156.66
-102.95
-52.37
-5.90
35.58
71.43
101.35
125.50
144.38
158.69
169.15
176.37
180.75
182.57
182.07
179.51
175.23
169.65
163.18
156.15
148.81
141.30
133.69
126.02
118.33
110.69
103.16
95.80
88.68
81.83
75.25
68.95
62.95
57.25
51.86
46.78
42.03
37.59
33.45
29.61
26.07
22.81
19.83
17.11
14.67
12.48
10.54
8.83
7.35
6.07
4.97
4.05
3.27
2.62
2.09
1.65
1.30
1.01
0.79
0.61
0.47
0.37
0.28
0.22
0.18
0.15
0.13
0.12
0.12
0.12
0.13
0.15
0.17
0.20
0.23
0.26
0.30
0.34
0.38
0.43
0.47
0.53
0.58
0.63
0.69
0.75
0.82
0.89
0.97
1.05
1.15
1.25
1.37
1.50
1.64
1.81
1.99
2.19
2.41
2.66
2.94
3.24
3.57
3.94
4.33
4.76
5.22
5.72
6.25
6.82
7.44
8.10
8.81
9.57
10.36
11.21
12.10
13.04
14.05
15.12
16.24
17.41
18.62
19.84
21.00
22.05
22.90
23.46
23.64
23.34
22.49
21.06
19.04
16.46
13.41
9.94
6.21
2.37
-1.46
-5.13
-8.51
-11.51
-14.06
-16.11
-17.63
-18.60
-19.06
-19.01
-18.51
-17.58
-16.27
-14.61
-12.65
-10.43
-8.00
-5.46
-2.92
-0.47
1.85
4.00
6.00
7.91
9.83
11.94
14.27
16.89
19.89
23.32
27.17
31.44
36.06
40.96
46.12
51.13
55.72
59.70
62.99
65.60
67.70
69.55
71.53
74.10
77.17
80.73
84.83
89.46
94.66
100.49
107.06
114.46
122.87
131.63
140.22
148.06
154.59
159.26
161.43
160.27
154.35
146.56
137.49
127.30
115.96
103.48
90.14
76.57
63.72
52.64
44.22
38.10
33.58
29.60
25.02
19.02
11.32
2.09
-8.28
-19.53
-32.42
-48.07
-67.63
-91.89
-120.82
-153.34
-187.82
-222.37
-255.51
-286.88
-316.75
-345.98
-375.93
-408.52
-445.72
-488.43
-535.05
-580.46
-616.72
-635.02
-628.92
-596.89
-542.82
-474.39
-400.00
-326.21
-256.72
-193.07
-136.17
-87.47
-48.97
-22.26
-7.33
-2.33
-4.35
-10.86
-20.55
-33.35
-49.49
-67.97
-85.89
-99.01
-103.26
-96.68
-80.41
-58.13
-34.43
-12.90
4.93
19.22
30.72
39.78
46.17
49.70
50.95
51.29
52.18
54.10
55.96
55.69
51.55
43.56
33.95
26.28
23.89
28.27
38.51
52.00
65.86
78.30
89.13
99.49
110.88
124.35
140.14
157.75
176.02
193.49
208.48
219.37
225.03
225.11
220.23
211.75
201.43
190.76
180.61
171.17
162.04
152.60
142.27
130.69
117.79
103.81
89.36
75.14
61.80
49.75
38.88
28.72
18.50
7.54
-4.51
-17.44
-30.48
-42.37
-51.64
-56.94
-57.40
-52.89
-44.10
-32.37
-19.38
-6.76
4.33
13.30
20.13
25.15
28.78
31.40
33.16
34.15
34.40
34.03
33.24
32.28
31.38
30.61
29.95
29.30
28.49
27.41
26.02
24.45
22.96
21.87
21.39
21.45
21.59
21.05
19.06
15.21
9.72
3.50
-2.21
-6.44
-9.03
-10.98
-14.23
-21.01
-33.06
-50.91
-73.45
-97.99
-120.70
-137.18
-143.37
-136.42
-115.67
-83.10
-43.30
-2.22
34.51
63.40
84.02
98.59
110.63
123.20
137.67
153.66
169.62
183.82
194.87
201.74
203.44
198.87
187.03
167.69
141.87
111.94
81.05
52.16
27.28
6.85
-9.94
-24.55
-38.26
-51.68
-64.65
-76.60
-86.98
-95.44
-101.76
-105.67
-106.79
-104.74
-99.56
-91.88
-82.93
-74.23
-67.00
-61.79
-58.25
-55.21
-50.99
-43.82
-32.32
-15.92
4.83
28.23
51.90
73.34
90.67
103.09
110.84
114.89
116.45
116.61
116.29
116.29
117.25
119.54
122.95
126.56
128.80
127.87
122.27
111.33
95.33
75.38
53.11
30.30
8.59
-10.75
-26.85
-39.15
-46.89
-49.19
-45.12
-34.10
-16.56
5.56
28.64
48.16
59.85
61.09
51.34
31.83
4.87
-26.86
-60.69
-94.01
-124.15
-148.53
-164.30
-169.28
-162.27
-142.99
-111.93
-70.46
-21.45
30.80
80.60
123.58
155.96
175.13
179.88
170.80
150.19
121.27
88.62
57.27
35.66
30.74
45.88
79.87
128.03
183.98
239.97
289.65
327.54
355.14
375.10
389.85
401.20
411.66
424.75
442.06
464.09
487.27
511.93
536.35
556.94
569.43
571.67
565.10
551.89
536.76
481.21
367.83
206.84
32.78
-119.21
-231.61
-295.64
-329.90
-348.79
-361.27
-365.56
-359.63
-344.60
-325.09
-306.98
-294.32
-290.15
-293.32
-302.46
-311.41
-315.96
-315.45
-312.72
-311.40
-313.45
-320.01
-329.43
-340.71
-351.02
-359.42
-367.14
-376.45
-388.23
-400.36
-409.19
-409.76
-399.39
-377.07
-344.86
-306.89
-267.82
-231.00
-197.60
-166.94
-136.43
-103.10
-64.24
-19.29
29.05
74.94
111.27
132.58
137.51
129.86
116.94
106.53
103.60
108.71
118.53
128.12
133.70
134.15
130.92
126.47
122.47
118.72
113.29
103.70
88.46
68.08
45.01
22.59
3.68
-10.51
-20.52
-27.91
-34.12
-39.40
-42.70
-42.34
-37.24
-27.92
-16.80
-7.36
-2.74
-4.35
-11.20
-20.23
-27.72
-30.78
-28.56
-22.71
-16.76
-14.95
-20.90
-36.59
-61.88
-94.22
-129.02
-160.30
-182.02
-189.40
-180.30
-155.85
-119.84
-77.28
-32.61
11.35
53.09
91.03
122.07
141.55
144.76
129.54
98.42
58.89
21.59
-3.00
-7.89
8.37
41.43
82.77
122.36
151.33
163.84
157.55
133.19
93.53
42.61
-14.25
-70.13
-116.39
-143.82
-145.09
-117.47
-64.60
4.23
76.93
142.55
194.20
229.98
251.67
262.49
265.22
261.36
251.50
235.97
215.48
191.20
164.50
136.69
108.68
81.07
54.08
27.50
0.65
-27.57
-58.67
-94.35
-135.95
-183.49
-234.64
-284.23
-325.05
-349.83
-353.96
-337.38
-304.82
-264.01
-222.79
-186.45
-156.72
-132.44
-111.51
-92.73
-76.46
-64.04
-56.53
-53.80
-54.42
-56.51
-58.75
-60.96
-64.01
-69.03
-76.60
-86.38
-97.14
-106.96
-113.42
-113.68
-104.98
-85.35
-54.89
-16.59
23.95
60.12
86.56
100.94
104.39
100.18
91.92
82.01
71.36
60.17
49.06
39.55
33.61
32.44
35.37
39.61
41.16
36.32
23.17
2.26
-23.82
-51.61
-78.04
-101.18
-120.33
-135.51
-147.00
-155.09
-160.21
-162.98
-164.18
-164.49
-164.09
-162.23
-157.17
-146.44
-127.53
-98.82
-60.20
-13.38
38.70
92.68
145.79
196.19
242.64
283.89
318.36
344.38
361.30
370.15
373.63
375.12
377.11
380.13
382.61
381.84
375.31
361.57
340.65
313.61
281.90
246.89
209.80
171.73
133.74
96.83
61.76
28.86
-2.10
-31.87
-61.56
-92.30
-124.71
-158.66
-193.11
-226.62
-258.17
-288.06
-318.40
-352.34
-392.31
-437.86
-484.55
-524.51
-549.05
-551.74
-530.65
-488.89
-433.17
-371.90
-313.40
-264.96
-231.91
-216.63
-217.31
-227.43
-237.08
-235.83
-216.71
-178.70
-126.88
-69.90
-16.30
28.36
62.73
88.63
109.21
127.18
144.02
160.16
175.53
189.96
203.28
215.07
224.57
230.79
232.98
231.09
225.77
218.07
208.69
197.40
182.81
162.63
134.25
95.25
44.15
-18.73
-90.42
-164.79
-233.38
-287.49
-321.01
-332.75
-326.69
-310.27
-291.21
-274.94
-263.61
-256.97
-254.22
-255.15
-260.05
-268.44
-278.00
-284.47
-282.93
-269.92
-244.97
-210.93
-172.97
-136.61
-105.72
-81.58
-63.01
-47.59
-32.97
-17.84
-1.99
14.33
31.17
48.94
67.70
86.20
101.55
110.03
108.81
97.62
79.14
58.00
38.57
23.11
11.07
-0.13
-13.14
-29.09
-46.87
-63.70
-76.55
-83.39
-83.94
-79.42
-71.80
-62.91
-53.72
-44.12
-33.23
-20.13
-4.58
12.79
30.69
47.84
63.67
78.64
93.96
111.06
131.10
154.78
182.21
212.79
244.78
275.13
299.58
313.79
314.73
302.07
278.54
249.04
218.77
191.39
168.20
148.37
130.26
112.70
95.66
80.11
67.39
58.47
53.70
52.79
55.10
59.86
66.36
73.87
81.60
88.61
93.88
96.51
96.03
92.59
87.06
80.80
75.17
71.09
68.70
67.39
66.20
64.33
61.57
58.46
55.89
54.60
54.66
55.21
54.79
51.97
46.09
37.71
28.48
20.52
15.40
13.47
13.59
13.65
11.44
5.72
-3.15
-13.18
-21.37
-24.81
-21.69
-12.09
1.99
17.14
29.42
35.57
33.91
24.90
11.11
-3.56
-15.05
-20.58
-19.70
-14.58
-9.22
-7.88
-13.31
-25.53
-41.83
-57.81
-69.22
-73.43
-70.02
-60.10
-44.98
-24.94
0.91
33.59
72.46
113.89
151.39
177.49
186.46
176.67
151.18
116.25
78.49
42.36
9.23
-21.74
-51.57
-79.71
-103.69
-120.01
-125.57
-118.81
-100.13
-71.73
-37.34
-1.71
29.76
51.88
60.92
55.78
38.63
14.40
-10.67
-30.73
-41.64
-41.48
-30.36
-9.94
16.91
46.27
73.47
93.80
103.52
101.08
87.76
67.55
46.08
28.98
20.35
21.91
32.86
50.46
70.82
89.62
102.81
107.27
101.31
85.23
61.38
33.79
7.21
-13.99
-26.90
-30.71
-26.65
-17.46
-6.31
4.12
12.38
18.24
22.12
24.19
23.62
18.53
6.71
-13.18
-40.47
-72.04
-102.81
-127.08
-140.06
-139.27
-125.10
-100.56
-70.25
-39.05
-10.94
11.48
26.91
34.78
34.79
26.89
11.61
-9.31
-32.78
-54.69
-70.69
-77.07
-71.26
-52.23
-20.53
21.39
68.92
115.39
153.21
175.77
179.47
164.98
136.80
101.35
64.38
29.26
-3.30
-33.98
-63.06
-89.15
-109.29
-120.18
-119.80
-108.41
-88.45
-63.49
-36.86
-10.84
13.37
34.93
52.67
64.74
69.06
64.22
50.50
30.26
7.55
-12.78
-26.38
-30.38
-23.88
-8.01
14.57
40.24
65.16
86.09
100.76
108.17
108.36
102.01
90.07
73.50
53.25
30.28
5.68
-19.33
-43.37
-64.81
-81.77
-92.34
-95.21
-90.42
-79.91
-67.36
-57.08
-52.56
-55.29
-64.46
-77.73
-92.41
-106.34
-118.09
-126.47
-129.85
-126.02
-112.69
-88.23
-52.11
-5.18
50.25
110.29
169.41
221.18
259.53
280.63
284.07
272.70
251.07
223.28
191.71
157.06
119.87
81.96
47.00
19.40
2.20
-4.73
-4.97
-4.24
-8.06
-19.50
-38.34
-61.47
-84.32
-102.70
-113.97
-117.21
-112.84
-101.85
-85.42
-64.96
-42.46
-20.65
-2.83
7.82
8.88
-0.73
-20.47
-47.92
-78.87
-107.61
-127.92
-134.59
-124.96
-99.91
-63.65
-22.43
17.36
50.87
75.48
90.63
96.98
95.66
87.99
75.57
60.63
45.91
34.11
27.10
25.34
27.71
32.06
36.00
37.71
36.35
31.95
25.02
16.37
6.97
-1.85
-8.44
-11.08
-8.69
-1.42
9.12
20.22
28.95
33.12
31.87
25.66
15.82
3.86
-8.96
-21.76
-33.97
-45.08
-54.55
-61.79
-66.25
-67.51
-65.36
-59.81
-51.11
-39.82
-26.77
-13.08
-0.04
11.11
19.48
24.84
27.78
29.58
31.80
35.72
41.80
49.44
57.19
63.23
66.07
65.13
61.00
55.32
50.19
47.34
47.45
49.89
53.01
54.89
54.15
50.39
44.17
36.51
28.47
20.86
14.39
9.83
8.01
9.54
14.38
21.52
29.15
35.08
37.46
35.21
28.14
16.87
2.38
-14.13
-31.46
-48.34
-63.25
-74.25
-79.00
-75.11
-60.88
-36.10
-2.52
36.16
75.09
109.32
134.92
149.60
152.85
145.52
129.33
106.14
77.64
45.15
9.94
-26.42
-61.84
-93.79
-119.89
-138.51
-149.24
-152.70
-150.01
-142.11
-129.58
-112.84
-92.62
-70.22
-47.38
-25.75
-6.49
9.84
23.12
33.39
40.77
45.60
48.61
50.97
54.11
59.32
67.28
77.66
88.77
97.81
101.48
96.92
82.64
58.88
27.12
-10.90
-53.96
-101.11
-150.52
-198.19
-237.94
-262.87
-268.22
-253.81
-224.63
-189.09
-155.93
-131.36
-117.86
-114.92
-120.44
-131.73
-145.58
-157.98
-164.55
-162.20
-151.09
-135.60
-123.11
-120.82
-132.15
-154.63
-180.62
-200.26
-205.39
-192.26
-162.21
-120.50
-74.21
-30.21
6.19
32.09
47.15
53.36
54.23
53.50
53.89
56.35
60.26
64.34
67.73
70.49
73.20
76.21
79.08
80.72
80.19
77.61
74.38
72.94
75.88
85.15
101.78
125.90
156.72
192.48
230.34
266.40
296.39
316.47
324.19
318.73
300.70
271.62
233.57
189.19
141.83
95.32
53.25
17.85
-10.77
-34.51
-56.01
-76.88
-96.43
-111.51
-117.75
-111.65
-92.54
-63.31
-29.91
0.32
20.76
27.32
19.38
-0.31
-26.63
-53.65
-76.28
-91.58
-99.37
-101.81
-102.23
-103.74
-108.10
-115.33
-124.07
-132.23
-137.65
-138.42
-132.86
-119.66
-98.30
-69.66
-36.55
-3.57
23.76
40.50
43.62
32.86
10.54
-19.25
-51.76
-82.53
-107.73
-124.30
-129.80
-122.76
-103.01
-72.16
-33.68
7.67
46.65
78.60
100.15
109.61
106.76
92.56
68.77
37.72
2.15
-35.07
-71.26
-104.28
-132.61
-155.10
-170.38
-176.40
-170.58
-150.74
-116.42
-70.04
-17.05
35.22
79.54
110.88
127.56
131.16
125.18
113.48
99.12
83.97
69.08
55.08
42.47
31.50
22.20
14.50
8.58
5.30
6.31
13.59
28.73
52.15
82.64
117.60
153.41
186.17
212.10
227.89
231.00
220.01
194.79
156.48
107.28
50.08
-11.72
-74.13
-132.61
-182.30
-218.73
-238.87
-241.88
-229.21
-204.04
-170.33
-131.99
-92.65
-55.62
-23.94
-0.08
14.49
19.77
17.27
9.68
0.37
-7.14
-9.52
-4.08
10.72
34.77
66.01
100.64
133.70
160.02
174.98
175.42
160.36
131.53
93.53
53.19
18.00
-5.86
-15.30
-10.89
3.85
24.14
45.72
65.83
83.30
97.79
108.92
115.89
117.38
111.74
97.34
72.81
37.43
-8.45
-62.99
-122.45
-181.16
-231.87
-266.71
-278.73
-263.91
-223.03
-162.53
-93.91
-31.05
13.59
32.93
27.46
4.76
-23.45
-45.56
-53.65
-45.10
-22.13
10.02
45.05
76.86
100.17
110.72
105.80
85.05
50.93
8.50
-35.69
-75.39
-106.27
-126.78
-137.89
-142.16
-142.42
-140.69
-137.54
-132.16
-123.01
-108.71
-88.93
-64.66
-37.89
-10.74
15.32
39.72
62.59
84.08
103.93
121.47
135.99
147.03
154.32
157.38
155.06
145.58
127.32
99.87
64.83
25.88
-12.02
-43.83
-65.51
-74.68
-70.75
-54.88
-29.65
1.36
34.22
65.31
91.90
112.13
124.63
128.04
120.82
101.82
71.10
30.66
-15.68
-63.14
-107.45
-145.76
-176.87
-200.50
-216.35
-223.57
-221.12
-208.72
-187.67
-160.89
-132.08
-104.28
-78.84
-55.32
-32.41
-9.23
13.66
34.28
50.01
58.85
60.26
55.39
46.73
37.26
29.83
26.66
29.17
37.95
52.84
73.01
97.12
123.39
149.81
174.43
195.76
213.19
227.28
239.78
253.04
268.98
288.02
308.54
327.03
339.07
340.70
329.48
305.08
269.47
226.75
182.76
144.11
116.67
103.83
105.24
116.75
132.02
144.96
151.90
152.48
148.84
143.79
139.10
134.92
130.28
124.14
116.11
106.56
96.08
84.93
72.92
59.51
44.28
27.05
7.92
-12.88
-35.23
-59.10
-84.55
-111.41
-139.25
-167.32
-194.70
-220.64
-244.96
-268.30
-291.92
-317.07
-344.03
-371.31
-395.55
-412.21
-416.94
-407.19
-383.30
-348.57
-308.40
-268.67
-234.13
-207.26
-188.11
-174.81
-164.61
-154.82
-143.44
-129.38
-112.49
-93.51
-73.93
-55.71
-41.03
-31.64
-28.50
-31.46
-39.30
-49.75
-59.77
-65.74
-64.15
-52.55
-30.55
-0.51
32.84
63.65
86.81
99.49
101.69
95.66
84.63
71.61
58.57
46.53
35.97
27.30
21.08
17.88
17.86
20.54
24.70
28.68
31.02
31.01
29.15
26.98
26.46
28.91
34.17
40.37
44.32
42.51
32.23
12.45
-15.97
-50.32
-86.36
-118.78
-141.82
-150.34
-141.27
-114.70
-74.45
-27.30
18.76
56.81
82.72
95.78
98.09
93.19
84.65
75.05
65.66
56.57
47.07
36.06
22.38
5.21
-15.51
-38.61
-61.51
-80.32
-90.66
-89.08
-74.39
-48.58
-16.46
15.68
42.02
58.91
65.60
63.85
56.69
47.10
37.22
28.05
19.88
12.62
6.19
0.62
-3.98
-7.27
-8.68
-7.29
-1.93
8.37
23.64
42.30
60.87
74.51
78.44
69.49
47.37
14.89
-22.77
-59.48
-89.56
-108.75
-114.76
-107.37
-88.36
-61.16
-30.27
-0.32
24.90
43.17
53.98
58.06
56.76
51.42
43.15
32.80
21.19
9.16
-2.50
-13.14
-22.41
-30.28
-37.01
-42.98
-48.59
-54.09
-59.49
-64.71
-69.54
-73.89
-77.73
-81.18
-84.29
-86.99
-88.90
-89.52
-88.26
-84.82
-79.33
-72.44
-65.17
-58.48
-53.03
-48.85
-45.55
-42.66
-40.00
-38.01
-37.54
-39.39
-43.80
-50.20
-57.18
-63.00
-66.09
-65.47
-61.05
-53.61
-44.54
-35.57
-28.27
-23.73
-22.25
-23.39
-26.24
-29.83
-33.50
-37.15
-41.22
-46.62
-54.44
-65.65
-80.57
-98.21
-115.88
-129.32
-133.63
-124.71
-100.51
-61.58
-10.75
47.71
108.84
167.49
218.66
258.08
283.15
294.03
294.03
289.00
285.70
289.83
304.54
329.75
362.50
397.81
429.73
452.74
462.85
458.59
441.25
414.24
381.67
346.98
312.33
279.02
248.33
222.00
201.82
188.37
180.18
173.64
164.44
149.42
127.88
101.11
71.79
42.59
15.05
-10.74
-35.38
-59.03
-81.10
-100.40
-116.54
-130.11
-142.46
-155.17
-169.27
-184.77
-200.39
-214.52
-225.79
-235.19
-244.75
-256.43
-271.63
-291.26
-316.03
-345.71
-379.24
-413.40
-446.21
-473.79
-490.52
-491.35
-474.75
-443.69
-402.71
-357.32
-310.57
-270.31
-241.76
-225.43
-217.50
-213.09
-208.54
-199.35
-184.42
-163.07
-147.22
-147.89
-169.06
-206.50
-252.87
-302.36
-348.41
-390.38
-427.71
-474.95
-544.00
-636.72
-744.84
-858.06
-970.83
-1078.55
-1184.03
-1194.66
-1056.37
-782.66
-447.71
-128.88
131.52
301.10
410.14
481.29
530.23
553.19
546.59
517.03
477.91
443.51
422.67
421.89
437.34
464.00
485.68
489.60
472.57
441.44
406.75
376.33
356.67
346.11
341.96
334.41
316.02
285.51
247.82
210.01
177.16
153.25
137.15
127.20
118.48
107.24
92.62
76.59
61.99
50.64
43.90
40.77
40.18
40.02
38.82
36.23
32.95
30.07
28.27
28.08
29.11
30.96
33.33
35.95
38.53
40.72
42.12
42.28
40.75
37.09
31.02
22.40
11.37
-1.77
-16.47
-32.06
-47.77
-62.82
-76.45
-88.01
-96.98
-103.04
-106.13
-106.38
-104.21
-100.17
-94.93
-89.15
-83.37
-77.88
-72.73
-67.74
-62.59
-56.97
-50.62
-43.44
-35.45
-26.70
-17.19
-6.86
4.35
16.46
29.29
42.40
55.17
66.97
77.33
86.18
93.79
100.75
107.64
114.86
122.40
130.00
137.24
143.86
149.93
155.82
162.17
169.73
179.29
191.51
206.63
224.09
242.25
258.48
269.80
273.80
269.50
257.72
240.70
221.22
201.71
183.71
167.90
154.48
143.48
134.82
128.20
122.83
117.57
111.27
103.29
93.79
83.67
74.21
66.44
60.68
56.36
52.28
47.15
40.15
31.26
21.33
11.76
3.92
-1.22
-3.49
-3.71
-3.55
-5.27
-11.08
-22.42
-39.25
-59.82
-81.06
-99.65
-113.13
-120.68
-123.13
-122.11
-119.11
-114.73
-108.66
-100.20
-89.05
-75.62
-60.94
-46.01
-31.26
-16.33
-0.36
17.33
36.67
56.52
75.03
90.27
100.87
106.50
107.70
105.48
100.73
93.96
85.25
74.66
62.56
49.76
37.40
26.61
18.13
12.08
8.03
5.13
2.48
-0.63
-4.62
-9.55
-15.24
-21.35
-27.55
-33.55
-39.23
-44.63
-49.88
-55.15
-60.45
-65.54
-69.84
-72.52
-72.73
-69.87
-63.78
-54.82
-43.85
-31.99
-20.39
-10.03
-1.52
4.97
9.67
13.08
15.75
18.06
20.05
21.44
21.84
21.01
19.05
16.48
14.06
12.56
12.42
13.66
15.83
18.26
20.17
20.98
20.39
18.61
16.53
15.68
18.00
25.09
37.59
54.76
74.72
95.12
114.08
130.81
145.62
159.36
172.70
185.57
197.23
206.64
213.11
216.69
218.20
218.95
220.23
222.87
226.94
231.66
235.57
237.12
235.19
229.53
220.83
210.46
199.93
190.39
182.37
175.82
170.40
165.79
161.72
158.04
154.44
150.32
144.82
136.94
125.73
110.50
91.09
68.05
42.83
17.48
-5.94
-26.16
-43.20
-58.37
-73.64
-91.03
-112.09
-137.81
-168.60
-203.92
-241.99
-279.57
-312.59
-337.42
-352.30
-358.08
-357.78
-355.14
-352.98
-352.33
-352.50
-351.76
-348.12
-339.60
-324.19
-299.99
-265.71
-221.47
-169.39
-113.49
-58.81
-10.17
28.98
57.11
74.61
83.16
85.14
82.91
78.50
73.39
68.55
64.61
62.02
61.36
63.39
69.15
79.68
95.57
116.60
141.36
167.29
190.82
207.92
214.91
209.42
191.23
162.76
128.76
95.38
68.68
53.03
50.10
58.63
75.06
94.85
113.77
128.79
138.40
142.30
140.73
134.02
122.35
105.87
85.18
61.61
37.20
14.23
-5.39
-20.69
-31.78
-39.71
-45.99
-52.06
-59.08
-67.83
-78.76
-91.97
-107.10
-123.12
-138.31
-150.45
-157.34
-157.32
-149.74
-135.11
-114.94
-91.55
-67.81
-46.74
-31.06
-22.51
-21.21
-25.56
-32.66
-39.49
-44.10
-46.26
-47.13
-48.34
-50.86
-54.51
-58.21
-60.80
-61.62
-60.58
-57.93
-53.87
-48.65
-42.84
-37.57
-34.32
-34.47
-38.69
-46.64
-57.04
-67.93
-77.03
-82.05
-81.34
-74.44
-62.80
-49.53
-38.60
-33.43
-35.67
-44.67
-57.92
-71.97
-83.42
-89.54
-88.65
-80.46
-66.28
-48.88
-31.75
-17.99
-9.11
-4.72
-3.01
-1.98
-0.56
0.99
1.46
-0.47
-5.40
-12.85
-21.31
-28.61
-32.47
-31.12
-23.81
-11.03
5.51
23.56
41.06
56.93
71.21
84.61
97.83
110.93
123.11
133.12
139.72
142.24
140.53
134.84
125.42
112.20
94.81
72.75
45.89
14.95
-18.10
-50.06
-77.17
-96.18
-105.57
-106.17
-100.74
-92.65
-84.22
-75.79
-66.15
-54.03
-39.65
-25.47
-15.27
-12.42
-18.34
-32.19
-51.64
-74.05
-96.80
-116.70
-129.27
-129.12
-111.99
-77.50
-30.99
17.30
55.54
74.72
71.72
49.71
15.92
-21.49
-55.82
-82.74
-99.87
-106.15
-101.66
-87.87
-67.69
-45.06
-24.03
-7.75
1.98
4.68
0.71
-9.15
-23.92
-42.34
-62.70
-82.60
-99.05
-108.84
-109.25
-99.00
-78.95
-52.13
-23.04
3.60
24.10
36.57
41.12
39.37
33.87
27.41
22.36
19.98
19.95
20.19
17.42
8.05
-10.59
-39.83
-79.75
-129.75
-188.60
-253.73
-320.38
-381.38
-428.56
-455.37
-459.62
-444.66
-418.21
-389.22
-364.52
-346.89
-335.32
-326.88
-318.91
-310.20
-300.79
-290.97
-280.38
-267.86
-251.99
-231.84
-207.36
-179.57
-150.10
-120.59
-92.30
-65.82
-41.19
-18.01
4.24
26.07
47.73
69.19
90.16
110.08
128.31
144.43
158.36
170.39
181.16
191.38
201.71
212.85
225.61
240.62
257.52
274.25
287.03
291.50
284.71
266.92
241.91
215.53
193.13
177.21
166.71
158.28
148.47
135.68
120.63
105.36
91.78
80.66
71.76
64.45
58.54
54.28
52.06
52.11
54.38
58.72
65.31
74.69
87.41
103.61
122.62
142.94
162.55
179.51
192.53
201.28
206.29
208.41
208.27
205.77
200.03
189.77
173.82
151.53
122.97
88.81
50.32
9.41
-31.19
-68.19
-98.24
-118.95
-129.64
-131.65
-127.59
-120.31
-111.78
-102.70
-92.78
-81.46
-68.73
-55.50
-43.38
-34.13
-28.92
-27.84
-29.79
-32.92
-35.46
-36.41
-35.90
-35.04
-35.25
-37.68
-42.75
-50.06
-58.68
-67.23
-74.12
-77.71
-76.53
-69.68
-57.18
-40.05
-20.12
0.49
19.92
36.95
51.17
62.69
71.87
78.99
84.16
87.32
88.38
87.41
84.72
80.90
76.66
72.69
69.47
67.21
65.80
64.98
64.45
64.00
63.63
63.49
63.81
64.82
66.57
69.03
72.09
75.65
79.61
83.88
88.32
92.72
96.82
100.23
102.28
101.82
97.08
86.03
67.06
39.84
6.04
-30.78
-65.87
-94.50
-113.23
-120.56
-117.08
-105.03
-87.75
-69.03
-52.53
-41.21
-36.71
-39.05
-46.71
-57.22
-67.99
-77.10
-83.65
-87.58
-89.23
-88.88
-86.54
-82.24
-76.23
-69.26
-62.41
-56.78
-52.96
-50.92
-49.86
-48.63
-45.88
-40.45
-31.61
-19.36
-4.64
10.66
24.06
33.28
37.04
35.63
30.77
24.89
20.16
17.84
18.11
20.44
24.13
28.61
33.34
37.72
40.96
42.26
41.12
37.42
31.46
23.69
14.63
4.88
-4.64
-12.62
-17.48
-17.87
-13.21
-3.97
8.45
22.24
35.78
47.91
57.86
64.93
68.24
66.91
60.37
48.90
33.74
16.91
0.58
-13.42
-23.92
-30.25
-31.94
-28.62
-20.37
-8.23
5.45
17.20
23.37
21.37
10.64
-7.08
-28.39
-49.28
-66.28
-77.00
-80.24
-75.86
-64.64
-48.28
-29.30
-10.48
5.86
18.75
29.01
38.84
50.74
66.29
85.27
105.68
124.61
139.49
149.09
153.95
155.94
157.52
160.77
166.75
175.23
184.68
192.54
195.63
190.69
175.15
147.97
110.30
65.61
19.04
-23.88
-58.67
-83.03
-97.07
-102.77
-102.88
-99.87
-95.35
-90.18
-84.84
-79.93
-76.29
-74.74
-75.77
-79.32
-84.90
-91.87
-99.71
-108.13
-117.01
-126.28
-135.72
-144.92
-153.17
-159.26
-161.36
-157.22
-144.67
-122.60
-91.68
-54.51
-15.05
22.66
55.70
82.92
104.75
122.39
136.79
148.10
155.82
159.28
158.20
153.00
144.52
133.69
121.14
107.19
92.10
76.41
61.17
47.70
37.19
30.15
26.23
24.51
24.04
24.31
25.34
27.36
30.16
32.99
34.77
34.95
34.27
34.90
39.57
50.12
65.95
83.36
96.43
99.13
87.94
63.88
32.78
3.61
-14.62
-16.05
-0.07
28.65
62.01
91.52
110.97
117.97
113.93
102.76
89.27
77.65
70.67
69.42
73.43
80.96
89.53
96.52
99.76
98.02
91.05
79.55
64.59
47.26
28.39
8.43
-12.53
-34.72
-58.71
-85.20
-114.57
-146.27
-178.53
-208.48
-233.00
-249.98
-259.34
-263.10
-264.55
-266.44
-269.64
-272.58
-271.99
-264.60
-248.47
-223.46
-190.50
-150.50
-103.90
-51.46
4.12
57.19
99.60
123.25
123.30
100.68
62.21
18.31
-20.48
-46.59
-56.72
-51.33
-33.06
-5.18
29.03
66.23
102.79
135.04
159.93
175.77
182.41
180.85
172.34
157.65
137.03
110.71
79.85
46.93
15.44
-11.20
-30.72
-42.61
-47.79
-47.60
-42.97
-34.12
-20.88
-3.46
16.96
38.31
58.18
74.71
87.17
96.19
103.25
109.96
117.30
125.16
132.31
136.85
136.86
131.10
119.38
102.47
81.64
58.04
32.24
4.37
-25.56
-57.14
-89.36
-120.91
-150.58
-177.72
-202.36
-224.75
-244.67
-260.69
-269.96
-268.61
-252.98
-221.21
-174.50
-117.47
-57.36
-2.22
41.14
68.78
80.20
77.96
66.50
50.71
34.96
22.29
14.23
10.88
11.27
13.86
17.06
19.84
21.88
23.63
25.94
29.63
34.99
41.56
48.18
53.37
55.96
55.39
51.90
46.25
39.32
31.87
24.49
17.81
12.56
9.40
8.42
8.82
8.85
6.35
-0.47
-12.22
-28.11
-46.15
-63.87
-79.07
-90.21
-96.55
-98.01
-95.05
-88.57
-79.93
-70.72
-62.39
-55.80
-50.84
-46.54
-41.47
-34.59
-25.81
-16.37
-8.34
-3.74
-3.34
-5.90
-8.22
-6.23
3.37
21.29
44.73
67.95
84.03
87.40
76.18
53.07
24.92
1.01
-9.51
-0.04
31.36
81.05
140.35
197.76
242.20
266.24
268.04
251.07
221.93
187.35
151.66
115.91
78.83
38.81
-4.09
-47.21
-85.70
-114.16
-128.74
-128.86
-117.83
-101.95
-88.64
-83.98
-91.10
-109.67
-136.49
-166.89
-195.95
-219.24
-233.35
-236.16
-227.23
-208.03
-181.78
-152.69
-124.93
-101.45
-83.48
-70.55
-61.10
-53.19
-45.23
-36.36
-26.49
-16.20
-6.39
1.93
7.98
11.38
12.17
10.74
7.59
3.22
-1.80
-6.77
-10.76
-12.85
-12.47
-9.89
-6.38
-3.95
-4.63
-9.71
-19.22
-31.85
-45.27
-56.74
-63.67
-64.09
-56.90
-42.13
-20.90
4.70
31.98
58.21
80.96
98.34
109.03
112.21
107.50
95.07
75.73
50.96
22.92
-5.87
-32.81
-55.53
-72.13
-81.43
-83.20
-78.24
-68.32
-55.77
-42.78
-30.77
-19.93
-9.35
2.37
16.40
32.91
50.99
68.84
84.48
96.29
103.44
105.92
104.38
99.86
93.49
86.34
79.31
73.00
67.76
63.68
60.63
58.38
56.63
55.16
53.80
52.51
51.33
50.36
49.71
49.44
49.45
49.39
48.52
45.81
40.20
30.99
18.27
2.92
-13.48
-29.19
-42.73
-53.23
-60.36
-64.19
-64.98
-63.07
-58.87
-52.89
-45.61
-37.35
-28.16
-17.87
-6.29
6.46
19.79
32.58
43.37
50.76
53.79
52.20
46.59
38.21
28.61
19.20
10.83
3.65
-2.79
-9.19
-16.16
-23.91
-32.27
-40.77
-48.89
-56.23
-62.54
-67.76
-71.90
-75.05
-77.34
-78.88
-79.72
-79.69
-78.37
-75.20
-69.74
-61.87
-52.06
-41.23
-30.50
-20.78
-12.54
-5.77
-0.31
3.89
6.51
6.93
4.52
-1.03
-9.56
-20.42
-32.66
-45.20
-57.05
-67.44
-75.98
-83.03
-89.92
-98.92
-112.57
-132.50
-158.18
-186.34
-211.46
-227.38
-229.30
-215.41
-187.33
-149.42
-107.33
-66.55
-31.35
-4.36
13.33
22.02
23.15
19.00
12.32
5.84
1.67
0.97
3.77
9.04
15.07
19.89
21.78
19.62
13.01
2.20
-11.95
-27.91
-43.32
-55.02
-59.51
-53.58
-35.15
-3.80
38.94
89.77
144.00
196.16
240.84
273.67
292.25
296.67
289.41
274.36
255.59
236.16
217.60
200.12
183.24
166.37
149.12
131.33
113.06
94.63
76.74
60.42
46.72
36.30
28.86
22.99
16.38
6.65
-7.62
-26.16
-46.81
-66.17
-80.80
-88.54
-89.27
-84.83
-78.20
-72.30
-69.04
-68.99
-71.62
-75.86
-80.64
-85.00
-87.97
-88.26
-84.31
-74.62
-58.26
-35.44
-7.64
22.71
52.92
80.89
105.64
127.35
146.77
164.29
179.13
189.15
191.46
183.42
163.77
132.99
92.99
46.38
-4.12
-55.78
-105.45
-149.23
-182.84
-202.62
-206.82
-196.39
-174.63
-145.95
-114.31
-82.23
-50.69
-19.93
9.76
37.43
61.62
80.84
94.11
101.24
102.68
99.35
92.18
82.06
69.76
56.02
41.68
27.66
15.01
4.71
-2.60
-6.90
-8.95
-10.31
-12.93
-18.55
-28.14
-41.55
-57.58
-74.32
-89.54
-101.07
-106.88
-105.22
-94.80
-75.30
-47.78
-14.94
19.14
49.94
73.58
87.81
92.43
89.00
80.13
68.68
57.13
47.32
40.46
37.02
36.68
38.33
40.09
39.78
35.57
26.62
13.62
-1.34
-15.20
-24.98
-28.68
-25.92
-17.91
-6.87
4.82
15.40
24.13
31.07
36.74
41.71
46.37
50.97
55.64
60.19
63.89
65.32
62.52
53.55
37.37
14.43
-13.08
-41.76
-67.94
-88.78
-102.95
-110.75
-113.69
-113.57
-111.86
-109.25
-105.78
-101.25
-95.64
-89.50
-83.97
-80.55
-80.64
-85.08
-93.69
-105.23
-117.68
-128.94
-137.62
-143.59
-148.10
-153.07
-160.15
-169.82
-180.96
-191.26
-197.92
-198.65
-192.09
-177.85
-156.07
-127.06
-91.13
-48.87
-1.54
48.68
98.96
146.40
188.71
224.59
253.66
275.98
291.53
300.10
301.57
296.37
285.93
272.54
258.81
246.93
238.02
232.02
227.95
224.46
220.29
214.47
206.31
195.24
180.91
163.29
142.84
120.40
96.91
72.95
48.46
22.85
-4.45
-33.38
-62.82
-90.76
-114.88
-133.33
-145.29
-151.02
-151.61
-148.38
-142.53
-135.03
-126.70
-118.25
-110.40
-103.75
-98.58
-94.89
-92.41
-90.77
-89.69
-88.98
-88.54
-88.24
-87.84
-87.01
-85.39
-82.65
-78.55
-73.04
-66.23
-58.39
-50.05
-41.92
-34.70
-29.01
-25.11
-22.93
-22.11
-22.12
-22.52
-23.05
-23.62
-24.25
-24.97
-25.69
-26.21
-26.26
-25.53
-23.82
-20.96
-16.92
-11.72
-5.42
1.78
9.53
17.25
24.19
29.55
32.78
33.70
32.62
30.19
27.14
24.01
20.99
17.94
14.58
10.72
6.41
1.99
-2.03
-5.20
-7.29
-8.41
-9.02
-9.76
-11.24
-13.88
-17.79
-22.76
-28.36
-33.99
-38.94
-42.45
-43.71
-42.02
-37.02
-28.88
-18.38
-6.84
4.23
13.43
19.86
23.21
23.75
22.08
18.95
15.03
10.69
5.97
0.50
-6.31
-15.15
-26.44
-40.10
-55.42
-71.12
-85.64
-97.42
-105.37
-109.04
-108.74
-105.36
-100.02
-93.66
-86.71
-79.09
-70.39
-60.29
-48.86
-36.61
-24.31
-12.55
-1.48
9.20
19.99
31.14
42.50
53.53
63.67
72.70
80.81
88.41
95.73
102.54
108.14
111.74
112.89
111.70
108.84
105.11
101.12
97.07
92.92
88.60
84.33
80.55
77.78
76.35
76.26
77.11
78.32
79.26
79.38
78.25
75.61
71.23
65.05
57.13
47.88
38.08
28.85
21.42
16.70
14.76
14.62
14.36
11.68
4.75
-6.99
-22.48
-39.36
-54.66
-65.81
-71.34
-71.16
-66.40
-58.92
-50.71
-43.46
-38.25
-35.48
-35.03
-36.40
-39.04
-42.47
-46.39
-50.61
-54.98
-59.26
-63.26
-66.83
-70.05
-73.13
-76.40
-80.10
-84.30
-88.89
-93.60
-98.06
-101.85
-104.43
-105.27
-103.84
-99.91
-93.84
-86.67
-80.05
-75.73
-74.91
-77.62
-82.48
-87.12
-88.97
-86.16
-78.01
-64.94
-47.89
-27.61
-4.30
22.22
51.95
84.20
117.40
149.42
178.11
201.77
219.25
229.73
232.39
226.33
210.84
185.84
152.19
111.80
67.39
22.22
-20.25
-56.64
-83.86
-99.61
-102.82
-94.09
-75.74
-51.38
-25.17
-0.89
18.69
32.22
39.79
42.71
43.12
43.41
45.63
50.92
59.22
69.41
79.74
88.47
94.58
98.02
99.67
100.85
102.61
105.13
107.58
108.30
105.58
98.37
86.97
73.06
59.24
48.33
42.54
42.90
48.90
58.36
67.46
71.41
65.74
47.95
18.90
-17.05
-53.34
-83.55
-103.65
-112.94
-113.33
-107.50
-97.08
-82.16
-62.02
-36.69
-8.03
20.24
43.71
58.86
64.08
59.78
47.65
29.65
7.29
-18.40
-46.30
-74.45
-99.75
-118.33
-126.70
-123.06
-108.15
-85.25
-59.14
-34.58
-14.91
-1.50
5.85
8.01
5.79
-0.34
-9.95
-22.23
-35.85
-49.31
-61.47
-71.95
-81.03
-89.14
-96.13
-100.94
-101.72
-96.42
-83.60
-63.12
-36.42
-6.31
23.48
49.07
67.14
75.45
73.25
61.43
42.39
19.77
-2.26
-19.93
-30.77
-34.31
-31.96
-26.32
-20.07
-14.96
-11.46
-9.05
-6.93
-4.76
-2.86
-1.99
-2.86
-5.44
-8.83
-11.49
-11.71
-8.07
0.06
12.28
26.77
40.19
47.81
44.56
26.64
-6.59
-51.56
-100.90
-145.75
-178.80
-196.81
-201.17
-196.44
-187.46
-177.09
-165.38
-150.71
-131.79
-109.18
-85.40
-63.57
-45.65
-31.27
-18.06
-3.05
15.55
37.38
60.08
80.45
95.88
105.28
109.13
108.67
105.05
98.79
89.85
78.30
64.84
51.02
38.95
30.53
26.80
27.58
31.55
36.88
41.78
45.26
47.22
48.45
50.08
53.04
57.70
63.82
70.73
77.74
84.30
89.94
94.00
95.55
93.53
87.19
76.63
63.05
48.61
35.89
27.16
23.72
25.67
31.90
40.43
48.90
55.04
57.04
53.95
45.68
33.04
17.67
1.93
-11.21
-18.61
-17.71
-7.69
9.58
29.23
44.34
47.92
35.20
5.34
-38.35
-89.63
-141.38
-187.43
-223.58
-247.64
-258.92
-257.89
-245.99
-225.77
-200.73
-174.86
-151.78
-134.07
-122.69
-117.19
-116.13
-117.74
-120.44
-123.08
-124.78
-124.54
-120.86
-111.71
-94.80
-68.44
-32.25
12.15
61.20
110.00
153.30
186.56
206.81
213.04
206.30
189.34
166.08
140.78
117.17
97.78
83.59
74.17
68.08
63.50
58.70
52.35
43.69
32.64
19.88
6.74
-5.08
-14.01
-19.18
-20.85
-20.32
-19.55
-20.43
-24.27
-31.39
-41.05
-51.72
-61.32
-67.66
-68.90
-63.88
-52.53
-35.84
-15.76
5.20
24.48
39.81
49.62
53.27
51.27
45.23
37.68
31.39
28.60
30.27
35.78
43.26
50.38
55.30
57.41
57.42
56.92
57.44
59.47
61.90
62.00
56.40
42.46
19.61
-9.90
-41.47
-69.34
-88.28
-94.89
-88.22
-69.70
-42.63
-11.59
18.26
41.99
55.83
58.03
49.35
32.76
12.51
-7.16
-23.18
-34.24
-40.89
-44.98
-48.88
-54.63
-63.22
-74.36
-86.51
-97.36
-104.35
-105.29
-98.78
-84.60
-63.82
-38.65
-12.06
13.00
34.33
50.94
63.03
71.47
77.26
81.09
83.43
84.78
85.85
87.51
90.41
94.62
99.42
103.47
105.19
103.36
97.59
88.61
78.15
68.44
61.64
59.08
60.97
66.52
74.32
82.95
91.33
98.86
105.19
110.09
113.40
115.13
115.64
115.68
116.13
117.66
120.29
123.10
124.48
122.34
114.74
100.36
78.92
51.26
19.14
-15.09
-48.99
-80.38
-107.77
-130.40
-148.24
-161.70
-171.27
-177.25
-179.62
-178.18
-172.87
-164.05
-152.58
-139.70
-126.61
-114.28
-103.17
-93.48
-85.32
-78.98
-74.78
-72.94
-73.21
-74.82
-76.54
-77.09
-75.52
-71.47
-65.18
-57.27
-48.43
-39.18
-29.72
-19.94
-9.53
1.80
14.16
27.31
40.54
52.78
62.87
69.90
73.52
74.09
72.55
70.05
67.56
65.64
64.40
63.67
63.29
63.22
63.53
64.26
65.42
66.98
68.90
71.26
74.21
77.84
82.04
86.37
90.22
92.98
94.38
94.67
94.55
94.82
95.93
97.39
97.58
94.02
83.88
64.79
35.52
-3.58
-50.49
-101.83
-153.51
-201.46
-242.50
-274.88
-298.43
-314.09
-323.25
-326.94
-325.49
-318.64
-306.01
-287.60
-264.20
-237.36
-209.24
-182.25
-158.57
-139.60
-125.31
-113.82
-101.70
-84.91
-60.33
-27.18
12.51
54.49
94.07
127.81
154.63
175.61
192.97
208.72
223.92
238.70
252.77
266.01
278.64
290.80
301.99
310.76
314.83
311.86
300.17
279.45
250.89
216.91
180.56
144.89
112.37
84.40
61.19
41.67
24.00
6.14
-13.24
-34.21
-55.39
-74.50
-89.18
-97.92
-100.47
-97.71
-91.06
-81.89
-71.19
-59.61
-47.74
-36.36
-26.49
-19.09
-14.79
-13.58
-14.80
-17.39
-20.26
-22.63
-24.22
-25.27
-26.26
-27.70
-29.91
-32.96
-36.69
-40.72
-44.53
-47.48
-48.96
-48.69
-46.84
-44.17
-41.89
-41.26
-43.09
-47.42
-53.40
-59.60
-64.41
-66.61
-65.56
-61.28
-54.30
-45.40
-35.39
-24.99
-14.84
-5.52
2.35
8.20
11.52
12.11
10.15
6.22
1.23
-3.93
-8.49
-11.98
-14.15
-14.81
-13.84
-11.13
-6.78
-1.13
5.24
11.65
17.54
22.55
26.54
29.52
31.56
32.77
33.32
33.49
33.55
33.66
33.81
33.85
33.63
33.11
32.39
31.64
30.93
30.15
28.94
26.85
23.58
19.09
13.63
7.58
1.29
-5.02
-11.26
-17.37
-23.24
-28.67
-33.51
-37.76
-41.61
-45.47
-49.64
-54.21
-58.91
-63.10
-65.99
-66.78
-64.97
-60.41
-53.34
-44.31
-34.08
-23.44
-13.10
-3.60
4.69
11.60
17.02
20.92
23.35
24.45
24.49
23.79
22.64
21.30
19.93
18.64
17.55
16.80
16.58
17.00
18.03
19.41
20.72
21.41
21.02
19.28
16.18
12.04
7.37
2.75
-1.36
-4.69
-7.20
-8.94
-9.98
-10.40
-10.30
-9.93
-9.75
-10.32
-12.14
-15.45
-20.10
-25.59
-31.27
-36.49
-40.78
-43.80
-45.34
-45.24
-43.44
-40.10
-35.61
-30.53
-25.44
-20.79
-16.76
-13.30
-10.24
-7.40
-4.64
-1.88
1.00
4.17
7.85
12.15
17.07
22.39
27.74
32.65
36.75
39.77
41.55
42.06
41.28
39.26
36.11
32.01
27.21
22.01
16.71
11.66
7.22
3.70
1.28
-0.14
-0.92
-1.63
-2.79
-4.67
-7.15
-9.80
-12.07
-13.47
-13.73
-12.76
-10.67
-7.64
-3.98
-0.10
3.54
6.46
8.34
9.04
8.59
7.19
5.04
2.39
-0.55
-3.48
-6.10
-8.03
-8.96
-8.73
-7.33
-4.98
-2.03
1.04
3.71
5.50
5.98
4.91
2.31
-1.51
-5.97
-10.40
-14.27
-17.37
-19.91
-22.33
-25.06
-28.24
-31.54
-34.15
-35.10
-33.59
-29.25
-22.30
-13.49
-3.87
5.44
13.53
19.80
24.03
26.34
27.05
26.52
25.01
22.67
19.54
15.70
11.41
7.14
3.41
0.61
-1.22
-2.44
-3.59
-5.09
-7.02
-9.05
-10.67
-11.45
-11.23
-9.99
-7.62
-3.93
0.93
5.99
9.26
8.35
1.68
-10.29
-24.80
-37.69
-45.19
-45.60
-39.95
-31.31
-23.26
-18.38
-17.51
-19.93
-24.07
-28.22
-30.95
-31.20
-28.38
-22.41
-13.79
-3.34
8.08
19.87
31.79
43.81
55.83
67.68
79.17
90.27
101.16
111.90
121.98
130.20
134.87
134.62
129.08
119.31
107.43
95.72
85.69
77.60
70.80
64.36
57.78
51.05
44.24
37.01
28.45
17.46
3.64
-12.12
-27.68
-40.38
-48.20
-50.67
-49.00
-45.53
-42.75
-42.33
-44.59
-48.56
-52.33
-53.70
-50.78
-42.41
-28.33
-9.17
13.70
38.46
63.09
85.75
105.15
120.82
133.29
143.70
153.10
161.50
167.26
167.22
157.63
135.53
100.05
52.91
-1.85
-58.88
-112.72
-158.84
-194.19
-217.36
-228.37
-228.40
-219.56
-204.46
-185.84
-166.02
-146.34
-126.94
-106.76
-84.16
-57.81
-27.58
4.97
36.96
65.12
87.09
102.19
111.56
117.43
121.97
126.29
130.03
131.71
129.45
121.83
108.48
90.36
69.61
49.30
32.67
22.22
18.93
21.76
28.02
34.50
38.78
40.22
39.91
39.71
40.84
42.77
43.09
38.43
26.00
4.92
-23.37
-55.70
-88.56
-119.27
-146.55
-170.15
-190.04
-205.77
-216.40
-221.04
-219.53
-212.62
-201.55
-187.12
-169.00
-145.64
-115.15
-76.50
-30.50
19.96
70.53
116.56
154.21
181.04
196.11
199.60
192.51
176.54
154.09
128.20
102.08
78.50
59.04
43.89
32.13
22.46
13.80
5.61
-2.28
-10.00
-17.82
-26.06
-34.83
-43.80
-52.21
-59.13
-63.87
-66.27
-66.82
-66.56
-66.81
-68.75
-73.07
-79.73
-87.79
-95.51
-100.56
-100.44
-93.01
-77.04
-52.66
-21.63
12.85
46.72
75.90
97.08
108.35
109.23
100.43
83.39
59.85
31.83
1.56
-28.37
-55.28
-76.70
-90.82
-96.91
-95.34
-87.37
-74.87
-59.83
-44.13
-29.33
-16.68
-7.07
-1.01
1.35
0.34
-3.36
-8.82
-15.02
-21.07
-26.37
-30.67
-34.05
-36.74
-38.92
-40.59
-41.59
-41.68
-40.68
-38.52
-35.25
-30.98
-25.81
-19.81
-12.97
-5.29
3.18
12.27
21.63
30.73
38.95
45.67
50.42
52.90
53.05
51.04
47.19
42.08
36.41
30.96
26.49
23.48
22.04
21.97
22.87
24.35
26.14
28.17
30.41
32.80
35.14
37.19
38.72
39.66
40.04
39.89
39.15
37.58
34.95
31.17
26.55
21.68
17.31
13.95
11.78
10.54
9.74
8.98
8.05
7.06
6.28
6.04
6.56
7.93
10.01
12.51
15.02
17.08
18.38
18.76
18.31
17.30
15.95
14.44
12.82
11.06
9.06
6.81
4.27
1.50
-1.45
-4.55
-7.83
-11.44
-15.68
-20.96
-27.63
-35.88
-45.52
-56.01
-66.45
-75.81
-83.07
-87.40
-88.30
-85.74
-80.10
-72.19
-63.03
-53.56
-44.45
-35.92
-27.84
-19.93
-12.01
-4.23
3.01
9.19
13.96
17.28
19.39
20.74
21.76
22.68
23.57
24.33
24.84
25.08
25.18
25.37
25.85
26.69
27.75
28.67
29.00
28.37
26.58
23.59
19.50
14.44
8.58
2.23
-4.10
-9.66
-13.68
-15.61
-15.30
-13.10
-9.63
-5.59
-1.52
2.25
5.55
8.23
10.10
10.95
10.60
9.04
6.42
3.05
-0.68
-4.38
-7.73
-10.47
-12.38
-13.28
-13.07
-11.68
-9.16
-5.67
-1.50
2.88
6.92
10.00
11.56
11.18
8.68
4.17
-2.04
-9.50
-17.76
-26.36
-34.86
-42.73
-49.38
-54.14
-56.48
-56.10
-53.08
-47.80
-40.84
-32.76
-23.97
-14.75
-5.33
4.02
12.94
21.05
28.09
34.05
39.14
43.68
47.92
51.90
55.42
58.19
59.92
60.55
60.22
59.25
57.92
56.45
54.82
52.85
50.32
46.99
42.79
37.80
32.26
26.44
20.60
14.97
9.68
4.87
0.62
-2.99
-5.99
-8.51
-10.81
-13.18
-15.83
-18.77
-21.69
-24.08
-25.35
-25.02
-22.83
-18.83
-13.30
-6.67
0.53
7.73
14.39
20.05
24.46
27.58
29.65
31.06
32.23
33.43
34.77
36.20
37.62
38.93
40.04
40.90
41.37
41.27
40.43
38.80
36.47
33.67
30.68
27.77
25.07
22.60
20.24
17.79
15.04
11.88
8.26
4.24
-0.03
-4.39
-8.67
-12.72
-16.41
-19.65
-22.37
-24.61
-26.44
-27.88
-28.93
-29.41
-29.08
-27.68
-25.11
-21.43
-16.91
-11.89
-6.75
-1.82
2.62
6.34
9.19
11.10
12.14
12.45
12.25
11.73
11.05
10.31
9.56
8.80
8.01
7.22
6.46
5.81
5.31
4.95
4.63
4.22
3.59
2.69
1.62
0.55
-0.38
-1.14
-1.74
-2.29
-2.84
-3.42
-4.04
-4.71
-5.46
-6.35
-7.39
-8.51
-9.63
-10.64
-11.48
-12.16
-12.74
-13.27
-13.65
-13.64
-12.89
-11.09
-8.20
-4.57
-0.91
1.89
3.00
1.98
-1.21
-6.22
-12.47
-19.22
-25.74
-31.39
-35.90
-39.47
-42.89
-47.25
-53.43
-61.42
-70.06
-77.13
-80.14
-77.22
-67.87
-53.01
-34.42
-13.99
6.98
27.82
48.20
67.60
85.03
99.13
108.65
112.94
112.18
107.33
99.68
90.54
80.89
71.40
62.49
54.39
47.26
41.13
35.93
31.49
27.58
23.90
20.15
15.98
11.13
5.50
-0.77
-7.28
-13.51
-18.98
-23.47
-27.01
-29.83
-32.18
-34.18
-35.77
-36.79
-37.15
-36.90
-36.19
-35.30
-34.53
-34.12
-34.23
-34.93
-36.14
-37.71
-39.44
-41.16
-42.81
-44.50
-46.43
-48.83
-51.79
-55.16
-58.48
-61.04
-62.08
-61.08
-57.88
-52.83
-46.70
-40.48
-35.15
-31.51
-30.06
-30.87
-33.53
-37.22
-40.87
-43.44
-44.27
-43.23
-40.64
-36.96
-32.51
-27.24
-20.80
-12.89
-3.45
7.17
18.40
29.63
40.47
50.76
60.50
69.73
78.41
86.45
93.68
99.82
104.45
107.03
106.87
103.35
96.07
85.10
71.06
55.12
38.87
23.95
11.80
3.31
-1.30
-2.49
-1.22
1.40
4.37
7.03
9.07
10.44
11.17
11.24
10.57
9.13
7.03
4.55
2.12
0.07
-1.50
-2.74
-3.92
-5.29
-6.84
-8.44
-9.84
-10.91
-11.70
-12.47
-13.46
-14.83
-16.53
-18.37
-20.12
-21.68
-23.08
-24.49
-26.15
-28.29
-31.05
-34.37
-37.97
-41.37
-43.92
-44.98
-44.06
-40.95
-35.86
-29.31
-22.03
-14.69
-7.81
-1.61
3.88
8.64
12.62
15.65
17.57
18.30
18.00
17.02
15.80
14.66
13.76
13.05
12.39
11.67
10.92
10.22
9.69
9.32
8.98
8.50
7.77
6.76
5.56
4.25
2.84
1.20
-0.83
-3.36
-6.37
-9.66
-13.02
-16.29
-19.46
-22.64
-25.91
-29.23
-32.31
-34.63
-35.64
-34.83
-31.99
-27.25
-21.11
-14.26
-7.44
-1.20
4.14
8.51
12.00
14.71
16.65
17.76
18.00
17.42
16.17
14.44
12.46
10.40
8.41
6.68
5.38
4.65
4.52
4.84
5.32
5.62
5.48
4.80
3.65
2.20
0.56
-1.22
-3.14
-5.27
-7.61
-10.13
-12.77
-15.42
-18.05
-20.63
-23.18
-25.76
-28.44
-31.32
-34.39
-37.51
-40.25
-41.98
-41.98
-39.74
-35.15
-28.61
-20.91
-13.00
-5.69
0.56
5.59
9.51
12.54
14.85
16.55
17.69
18.29
18.42
18.18
17.69
17.08
16.44
15.82
15.22
14.63
13.99
13.30
12.60
11.94
11.40
10.95
10.51
9.90
8.94
7.51
5.60
3.29
0.69
-2.05
-4.86
-7.73
-10.65
-13.66
-16.81
-20.18
-23.88
-27.96
-32.42
-37.01
-41.26
-44.49
-45.91
-44.85
-40.95
-34.25
-25.29
-14.91
-4.09
6.28
15.52
23.23
29.29
33.71
36.56
37.96
38.05
37.03
35.15
32.73
30.02
27.25
24.58
22.15
20.11
18.61
17.75
17.50
17.72
18.16
18.56
18.73
18.61
18.19
17.50
16.56
15.30
13.65
11.52
8.90
5.85
2.49
-1.05
-4.66
-8.23
-11.73
-15.15
-18.57
-22.09
-25.78
-29.56
-33.16
-36.07
-37.64
-37.25
-34.59
-29.71
-23.10
-15.53
-7.83
-0.69
5.41
10.29
13.90
16.30
17.54
17.72
16.97
15.47
13.46
11.18
8.80
6.42
4.06
1.74
-0.50
-2.50
-4.07
-5.02
-5.34
-5.19
-4.89
-4.76
-5.05
-5.75
-6.73
-7.80
-8.87
-9.97
-11.25
-12.84
-14.78
-16.99
-19.43
-22.16
-25.31
-28.98
-33.06
-37.07
-40.27
-41.84
-41.15
-37.97
-32.52
-25.29
-17.03
-8.46
-0.27
7.04
13.12
17.85
21.28
23.58
24.94
25.49
25.27
24.38
22.92
21.15
19.30
17.60
16.18
15.09
14.30
13.80
13.62
13.80
14.32
15.10
15.88
16.32
16.06
14.84
12.61
9.54
5.92
2.10
-1.67
-5.28
-8.76
-12.20
-15.70
-19.27
-22.86
-26.32
-29.39
-31.68
-32.75
-32.18
-29.76
-25.54
-19.87
-13.23
-6.13
1.06
8.08
14.70
20.60
25.37
28.63
30.21
30.35
29.68
29.02
28.98
29.72
30.78
31.23
29.97
26.13
19.35
9.97
-0.92
-11.49
-19.34
-22.04
-17.86
-6.50
10.51
30.32
49.72
66.34
79.38
89.25
96.57
100.98
100.75
93.34
76.78
50.90
17.70
-19.06
-55.04
-86.35
-110.14
-124.82
-130.09
-127.04
-118.21
-107.28
-98.15
-93.72
-94.83
-99.91
-105.70
-108.56
-105.71
-96.02
-79.85
-58.55
-33.78
-7.15
19.92
46.06
70.05
90.84
107.79
120.72
129.83
135.39
137.65
136.66
132.31
124.49
113.33
99.26
82.99
65.46
47.52
29.80
12.61
-4.04
-20.36
-36.64
-52.94
-68.78
-82.85
-93.13
-97.36
-93.89
-82.51
-64.64
-42.99
-20.58
0.09
17.42
30.56
38.93
41.99
39.42
31.61
20.00
6.93
-5.04
-13.91
-18.82
-20.01
-18.42
-15.11
-10.89
-6.14
-0.97
4.67
10.77
17.27
24.05
31.02
38.06
45.01
51.54
57.12
61.09
62.91
62.34
59.73
55.85
51.73
48.17
45.50
43.49
41.47
38.77
35.01
30.36
25.36
20.76
17.17
14.90
13.92
14.01
14.89
16.28
18.00
19.98
22.38
25.72
30.72
37.85
46.58
54.77
58.79
54.60
39.43
13.38
-20.10
-54.98
-84.70
-104.28
-111.77
-108.27
-96.90
-81.20
-64.08
-47.45
-32.64
-20.93
-13.68
-12.02
-16.14
-24.94
-36.12
-46.94
-55.24
-60.13
-62.11
-62.52
-62.72
-63.51
-64.98
-66.67
-67.93
-68.02
-66.02
-60.92
-51.73
-37.99
-20.11
0.50
21.81
41.79
58.98
72.68
82.60
88.23
88.47
81.62
66.06
41.11
7.76
-31.27
-72.01
-110.25
-142.55
-166.81
-182.35
-189.49
-189.00
-181.67
-168.22
-149.45
-126.48
-100.85
-74.44
-49.34
-27.55
-10.71
0.14
4.99
4.98
2.34
-0.19
-0.23
3.44
10.52
19.57
28.88
37.32
44.73
51.64
58.58
65.55
71.88
76.58
78.91
78.70
76.24
72.01
66.33
59.35
51.30
42.85
35.24
30.18
29.27
33.48
42.64
55.36
69.35
81.98
90.90
94.34
91.34
81.72
66.07
45.76
22.83
-0.21
-20.90
-37.32
-48.57
-54.86
-57.21
-56.92
-55.07
-52.24
-48.57
-44.04
-38.81
-33.34
-28.37
-24.63
-22.54
-22.08
-22.75
-23.80
-24.55
-24.53
-23.61
-21.95
-19.90
-17.90
-16.36
-15.58
-15.70
-16.57
-17.77
-18.57
-17.99
-14.92
-8.47
1.73
15.21
30.59
45.76
58.45
66.77
69.70
67.25
60.27
50.08
38.20
26.01
14.61
4.80
-3.04
-8.90
-12.88
-14.98
-14.89
-11.94
-5.48
4.78
18.41
34.30
50.98
67.03
81.43
93.62
103.33
110.35
114.59
116.24
115.87
114.42
112.68
110.54
106.66
98.77
84.64
63.39
36.15
5.85
-23.80
-49.73
-70.30
-85.30
-95.22
-100.47
-101.01
-96.60
-87.54
-74.99
-61.09
-48.33
-38.73
-33.24
-31.44
-31.85
-32.60
-32.07
-29.42
-24.77
-18.88
-12.75
-7.17
-2.48
1.35
4.50
7.05
8.94
10.06
10.43
10.42
10.72
12.22
15.65
21.35
29.01
37.75
46.31
53.36
57.77
58.81
56.14
49.77
40.10
27.96
14.61
1.62
-9.45
-17.47
-21.98
-23.29
-22.16
-19.49
-15.97
-12.08
-8.17
-4.74
-2.56
-2.53
-5.36
-11.21
-19.37
-28.40
-36.42
-41.67
-42.90
-39.71
-32.46
-22.09
-9.87
2.89
14.97
25.44
33.70
39.61
43.38
45.55
46.80
47.79
49.07
50.94
53.52
56.74
60.39
64.13
67.47
69.50
69.00
64.40
54.20
37.51
14.42
-13.69
-44.42
-74.83
-102.03
-123.75
-138.56
-145.94
-146.25
-140.55
-130.47
-117.95
-104.86
-92.61
-81.90
-72.67
-64.23
-55.60
-45.88
-34.56
-21.74
-8.07
5.44
17.72
27.98
35.87
41.45
45.02
46.91
47.44
46.89
45.62
44.05
42.59
41.49
40.72
40.04
39.21
38.09
36.84
35.80
35.31
35.54
36.43
37.72
39.06
40.14
40.75
40.78
40.38
39.87
39.70
40.20
41.33
42.49
42.51
40.02
33.74
23.03
8.14
-9.62
-28.04
-44.31
-55.58
-59.72
-55.88
-44.81
-28.67
-10.25
7.80
23.63
36.34
45.65
51.60
54.29
53.93
50.86
45.38
37.55
26.91
12.71
-5.60
-27.78
-52.46
-77.41
-100.25
-119.28
-133.91
-144.51
-151.87
-156.68
-159.15
-159.06
-155.95
-149.35
-139.00
-124.98
-107.89
-88.83
-69.33
-51.04
-35.37
-23.32
-15.28
-11.23
-10.81
-13.39
-17.97
-23.09
-27.06
-28.37
-26.27
-20.97
-13.44
-4.71
4.87
15.91
29.58
46.69
66.93
88.60
109.18
126.09
137.25
141.23
136.86
123.12
99.45
66.54
26.90
-15.18
-54.77
-87.69
-111.60
-126.07
-131.75
-129.28
-118.89
-100.88
-76.62
-49.16
-22.76
-1.57
12.06
18.47
20.19
20.42
21.22
22.54
22.59
19.18
11.38
0.29
-11.33
-20.35
-24.65
-23.89
-19.26
-12.52
-5.03
2.85
11.61
22.06
34.67
49.31
65.23
81.31
96.25
108.71
117.40
121.26
119.65
112.51
100.46
84.65
66.63
48.06
30.40
14.69
1.45
-9.27
-17.72
-24.17
-28.69
-31.17
-31.37
-29.11
-24.47
-17.83
-9.94
-1.87
5.12
9.75
11.04
8.68
3.29
-3.69
-10.47
-15.48
-18.06
-18.51
-17.84
-17.10
-16.66
-15.87
-13.13
-6.47
5.71
23.83
46.49
70.22
89.77
99.08
92.96
68.90
28.38
-23.04
-77.32
-126.35
-164.53
-189.99
-204.31
-210.93
-213.25
-213.38
-211.89
-208.37
-202.17
-192.78
-179.81
-162.94
-142.02
-117.42
-90.35
-62.67
-36.36
-12.64
8.46
28.18
48.30
70.32
94.57
119.98
144.32
165.00
179.93
188.22
190.35
187.93
183.01
177.28
171.34
164.48
154.71
139.46
116.44
84.72
45.41
1.83
-41.16
-78.49
-106.42
-123.62
-131.26
-132.20
-129.40
-124.61
-117.65
-106.89
-90.47
-67.62
-39.49
-8.85
20.90
47.08
68.53
85.71
100.01
112.76
124.48
134.76
142.58
146.78
146.36
140.71
129.78
114.34
96.32
78.94
66.12
61.36
66.26
79.61
97.55
114.73
126.25
129.29
123.72
111.65
96.04
79.29
62.41
45.10
26.39
5.71
-16.54
-38.89
-59.29
-75.79
-87.12
-92.95
-93.80
-90.77
-85.28
-78.96
-73.55
-70.71
-71.55
-76.12
-82.96
-89.20
-91.49
-87.49
-77.16
-63.00
-49.05
-38.90
-34.05
-33.24
-33.46
-31.75
-26.82
-19.47
-11.77
-5.53
-1.28
1.75
4.69
7.94
10.81
12.03
10.63
6.76
1.56
-3.51
-7.46
-10.38
-13.14
-16.70
-21.41
-26.61
-30.95
-33.05
-32.19
-28.66
-23.60
-18.49
-14.54
-12.26
-11.44
-11.32
-11.05
-10.05
-8.38
-6.65
-5.90
-7.13
-10.91
-17.13
-25.06
-33.67
-42.15
-50.20
-58.17
-66.85
-77.07
-89.37
-103.74
-119.68
-136.30
-152.54
-167.36
-179.69
-188.42
-192.25
-189.68
-179.27
-160.05
-131.88
-95.52
-52.50
-4.84
45.04
94.38
140.09
178.98
208.45
227.17
235.52
235.33
229.03
218.68
205.32
189.21
170.49
150.10
130.05
113.00
101.34
96.25
97.23
102.41
109.19
115.08
118.33
118.09
114.24
107.16
97.57
86.42
74.86
64.01
54.62
46.74
39.68
32.28
23.43
12.53
-0.28
-14.26
-28.44
-41.89
-53.87
-63.73
-70.84
-74.48
-74.10
-69.53
-61.20
-50.12
-37.63
-25.07
-13.42
-3.22
5.37
12.33
17.60
21.05
22.59
22.42
21.03
19.19
17.54
16.42
15.66
14.71
12.94
9.88
5.48
0.12
-5.49
-10.61
-14.59
-17.17
-18.49
-19.04
-19.54
-20.60
-22.60
-25.53
-29.03
-32.58
-35.67
-37.90
-39.07
-39.22
-38.56
-37.53
-36.70
-36.67
-37.74
-39.75
-41.98
-43.34
-42.79
-39.71
-34.10
-26.62
-18.26
-10.07
-2.85
3.02
7.61
11.33
14.75
18.32
22.20
26.14
29.60
32.04
33.21
33.29
32.87
32.63
33.06
34.32
36.24
38.49
40.73
42.59
43.60
43.24
41.09
37.11
31.86
26.40
21.87
18.98
17.61
16.92
15.87
13.83
10.93
8.01
6.04
5.56
6.28
7.18
6.89
4.23
-1.24
-9.10
-18.08
-26.46
-32.47
-34.82
-33.03
-27.53
-19.50
-10.34
-1.15
7.62
16.16
24.94
34.21
43.58
52.02
58.19
61.01
60.11
56.05
50.22
44.46
40.79
40.82
45.32
53.61
63.23
70.06
69.10
55.96
28.43
-12.29
-61.48
-111.88
-155.75
-186.90
-202.20
-201.97
-189.23
-168.44
-144.20
-120.39
-99.79
-83.99
-73.51
-67.79
-65.38
-64.27
-62.50
-58.82
-53.08
-46.18
-39.54
-34.42
-31.31
-29.70
-28.18
-24.88
-18.05
-6.50
9.95
30.33
52.66
74.35
92.80
106.15
113.72
116.01
114.32
109.98
103.77
95.64
85.07
71.61
55.41
37.30
18.44
-0.21
-18.12
-34.97
-50.08
-61.94
-68.33
-67.07
-57.15
-39.51
-17.19
5.53
24.27
35.78
38.52
32.55
19.05
-0.37
-24.08
-50.47
-77.81
-104.23
-127.64
-146.17
-158.51
-164.29
-164.13
-159.43
-151.89
-143.00
-133.82
-124.88
-116.36
-108.25
-100.38
-92.47
-84.06
-74.66
-63.81
-51.23
-36.90
-21.09
-4.25
12.96
29.72
45.20
58.74
70.05
79.31
87.12
94.13
100.64
106.41
110.65
112.45
111.28
107.31
101.51
95.45
90.89
89.45
92.24
99.66
111.09
124.80
138.02
147.43
149.91
143.43
127.52
103.43
73.59
40.92
8.18
-22.37
-49.01
-70.52
-86.15
-95.64
-99.28
-97.72
-91.90
-82.82
-71.66
-59.73
-48.52
-39.47
-33.58
-31.10
-31.32
-32.89
-34.29
-34.34
-32.52
-29.06
-24.85
-21.25
-19.80
-21.58
-26.72
-33.88
-40.32
-42.76
-38.64
-27.32
-10.48
8.58
26.37
40.58
50.70
57.52
62.09
64.83
65.21
62.38
55.89
46.26
34.85
23.34
13.06
4.66
-1.75
-6.17
-8.32
-7.54
-2.97
6.15
19.95
37.69
57.77
77.98
96.11
110.46
120.19
125.33
126.57
124.87
121.29
116.79
112.16
107.87
103.91
99.81
94.74
87.93
78.87
67.51
54.08
38.92
22.41
5.05
-12.25
-28.15
-41.13
-49.96
-54.07
-53.63
-49.31
-41.84
-31.86
-19.96
-7.04
5.55
16.03
22.70
24.40
20.82
12.51
0.48
-14.22
-30.72
-48.22
-65.75
-81.99
-95.34
-104.33
-108.11
-106.79
-101.50
-93.92
-85.63
-77.53
-69.76
-62.02
-54.31
-47.34
-42.35
-40.43
-41.53
-44.21
-46.12
-45.19
-40.66
-33.57
-26.14
-20.60
-18.02
-17.99
-19.02
-19.62
-19.12
-17.97
-17.24
-17.89
-20.10
-23.09
-25.46
-25.86
-23.53
-18.54
-11.64
-3.94
3.45
9.60
13.77
15.42
14.20
10.17
3.91
-3.45
-10.47
-15.74
-18.35
-18.09
-15.44
-11.27
-6.33
-0.93
5.19
12.62
21.72
32.18
42.89
52.30
59.02
62.51
63.31
62.81
62.58
63.60
65.87
68.37
69.65
68.49
64.54
58.66
52.62
48.64
48.28
51.61
56.56
59.14
54.23
36.78
3.45
-46.02
-107.86
-174.38
-235.32
-280.26
-301.44
-295.94
-266.43
-220.02
-165.85
-112.24
-64.88
-26.30
3.34
25.09
40.28
50.25
56.37
59.88
61.41
60.42
55.21
43.66
24.52
-1.26
-30.10
-56.59
-75.17
-82.04
-76.22
-59.59
-35.76
-8.75
18.10
42.60
63.57
80.45
93.06
101.56
106.50
108.72
109.20
108.76
107.86
106.42
103.99
99.90
93.57
84.79
74.00
62.31
51.37
42.94
38.24
37.37
39.07
40.99
40.43
35.31
24.82
9.68
-8.40
-27.48
-46.13
-63.64
-79.80
-94.42
-107.14
-117.63
-125.71
-131.28
-133.78
-131.88
-123.65
-107.52
-83.58
-54.19
-23.58
3.64
24.23
37.31
44.24
47.49
49.38
51.33
54.02
57.91
63.64
72.05
83.69
98.41
115.17
132.09
146.97
157.67
162.64
161.09
153.03
138.93
119.61
96.11
69.82
42.60
16.65
-5.82
-23.12
-34.47
-40.05
-40.79
-38.01
-33.20
-27.87
-23.47
-21.20
-21.85
-25.52
-31.68
-39.19
-46.59
-52.37
-55.26
-54.46
-49.87
-42.21
-32.80
-23.09
-14.10
-6.06
1.56
9.59
18.55
28.16
37.25
43.99
46.57
43.75
35.31
22.28
6.71
-8.83
-21.86
-30.70
-34.83
-34.84
-31.98
-27.51
-22.26
-16.38
-9.69
-2.19
5.39
11.36
13.35
8.95
-3.32
-23.42
-49.66
-79.12
-108.36
-134.10
-153.75
-165.56
-168.74
-163.61
-151.66
-135.39
-117.77
-101.27
-86.97
-74.15
-60.61
-43.87
-22.49
3.03
30.25
55.70
76.15
89.61
95.75
95.56
90.64
82.61
72.82
62.45
52.66
44.56
38.99
36.20
35.66
36.30
37.01
37.08
36.52
35.97
36.28
38.12
41.66
46.49
51.83
56.83
60.76
63.16
63.84
62.80
60.12
55.91
50.23
43.10
34.53
24.62
13.61
1.89
-10.10
-21.95
-33.35
-44.14
-54.18
-63.20
-70.79
-76.34
-79.29
-79.24
-76.19
-70.54
-63.07
-54.74
-46.43
-38.86
-32.41
-27.25
-23.34
-20.57
-18.78
-17.73
-17.15
-16.76
-16.40
-16.03
-15.86
-16.23
-17.43
-19.49
-22.09
-24.58
-26.27
-26.72
-26.00
-24.64
-23.46
-23.31
-24.74
-27.83
-32.12
-36.59
-39.84
-40.38
-37.07
-29.48
-18.23
-4.90
8.35
19.42
26.88
30.25
29.96
26.91
22.10
16.29
9.94
3.28
-3.47
-10.01
-15.95
-20.83
-24.16
-25.44
-24.23
-20.19
-13.35
-4.23
6.18
16.63
26.08
34.24
41.70
49.65
59.16
70.31
81.84
91.45
96.68
96.10
89.87
79.75
68.23
57.53
48.96
42.79
38.73
36.33
35.20
34.80
34.16
32.02
27.29
19.75
10.35
1.00
-6.30
-10.38
-11.48
-11.12
-11.49
-14.65
-21.92
-33.59
-48.82
-65.78
-81.92
-94.54
-101.49
-101.83
-96.11
-86.03
-73.70
-60.70
-47.62
-34.14
-19.56
-3.54
13.51
30.51
46.21
59.76
71.04
80.58
89.17
97.37
105.11
111.65
115.97
117.18
114.89
109.24
100.74
89.97
77.42
63.52
48.81
34.06
20.16
7.83
-2.70
-11.81
-20.34
-29.20
-38.98
-49.74
-61.00
-72.04
-82.11
-90.55
-96.67
-99.75
-99.07
-94.14
-85.01
-72.39
-57.48
-41.61
-25.78
-10.48
4.19
18.22
31.40
43.19
53.04
60.62
66.11
70.19
73.73
77.45
81.61
85.97
90.04
93.38
95.85
97.55
98.70
99.34
99.17
97.67
94.27
88.56
80.51
70.39
58.67
45.87
32.54
19.16
6.02
-6.84
-19.79
-33.53
-48.86
-66.25
-85.41
-105.17
-123.60
-138.53
-148.18
-151.72
-149.46
-142.79
-133.63
-123.84
-114.68
-106.58
-99.26
-92.10
-84.58
-76.45
-67.78
-58.71
-49.21
-39.00
-27.69
-15.03
-1.08
13.61
28.23
41.87
53.78
63.49
70.72
75.26
76.91
75.51
71.03
63.77
54.32
43.47
32.03
20.56
9.40
-1.34
-11.50
-20.71
-28.29
-33.29
-34.75
-32.04
-25.13
-14.70
-2.09
11.09
23.20
32.79
38.57
39.53
35.07
25.39
11.85
-2.98
-15.75
-23.26
-23.38
-15.76
-1.88
15.49
33.25
48.76
60.45
67.84
71.30
71.53
69.13
64.44
57.46
48.04
35.94
20.96
3.02
-17.58
-39.81
-61.82
-81.06
-94.93
-101.59
-100.59
-92.96
-80.78
-66.39
-51.76
-38.24
-26.68
-17.66
-11.52
-8.23
-7.07
-6.66
-5.18
-0.96
7.08
19.06
34.14
50.74
66.86
80.47
89.79
93.51
90.97
82.26
68.14
49.89
29.00
7.01
-14.70
-34.82
-52.04
-64.94
-72.15
-72.65
-66.19
-53.58
-36.69
-18.10
-0.38
14.47
25.50
32.68
36.62
37.96
37.07
33.95
28.38
20.25
9.68
-2.88
-16.84
-31.63
-46.83
-62.17
-77.41
-92.13
-105.68
-117.25
-126.13
-131.95
-134.83
-135.32
-134.16
-131.99
-129.07
-125.11
-119.40
-111.01
-99.18
-83.58
-64.48
-42.71
-19.44
4.09
26.75
47.73
66.53
82.94
96.98
108.83
118.69
126.73
132.92
136.99
138.53
137.18
132.78
125.53
115.95
104.77
92.81
80.84
69.49
59.23
50.29
42.60
35.83
29.50
23.07
16.18
8.67
0.62
-7.72
-16.03
-24.03
-31.50
-38.26
-44.09
-48.64
-51.41
-51.83
-49.47
-44.22
-36.56
-27.49
-18.42
-10.72
-5.34
-2.50
-1.76
-2.32
-3.45
-4.84
-6.66
-9.36
-13.37
-18.76
-25.17
-31.95
-38.26
-43.19
-45.83
-45.43
-41.79
-35.56
-28.43
-22.73
-20.66
-23.34
-30.19
-39.13
-47.39
-52.64
-53.91
-51.64
-47.22
-42.02
-36.76
-31.37
-25.36
-18.45
-10.99
-4.07
0.95
3.01
1.90
-1.62
-6.14
-10.28
-13.17
-14.78
-15.68
-16.53
-17.49
-17.83
-16.07
-10.56
-0.25
14.65
32.52
50.78
66.79
78.77
86.39
90.64
93.24
95.63
98.42
101.27
103.31
103.78
102.40
99.36
94.94
89.13
81.47
71.32
58.38
43.00
26.22
9.34
-6.63
-21.50
-35.70
-49.79
-63.66
-76.10
-85.00
-88.13
-84.21
-73.59
-58.22
-40.96
-24.62
-11.24
-1.97
2.74
2.72
-2.02
-11.16
-23.72
-37.98
-51.68
-62.49
-68.58
-68.95
-63.51
-52.95
-38.40
-21.27
-2.90
15.46
32.84
48.51
61.98
72.94
81.17
86.60
89.26
89.34
87.20
83.33
78.21
72.26
65.83
59.16
52.56
46.38
41.03
36.92
34.28
33.11
33.14
33.94
35.01
36.01
36.81
37.59
38.66
40.36
42.92
46.47
50.96
56.20
61.68
66.44
68.92
67.04
58.65
42.11
16.95
-15.85
-53.95
-94.27
-133.63
-169.22
-198.82
-220.70
-233.57
-236.66
-230.03
-214.78
-193.01
-167.50
-141.02
-115.80
-93.17
-73.70
-57.50
-44.56
-35.01
-28.99
-26.53
-27.25
-30.34
-34.62
-38.83
-41.91
-43.18
-42.32
-39.17
-33.47
-24.72
-12.30
4.28
24.91
48.75
74.24
99.47
122.68
142.63
158.79
171.22
180.32
186.56
190.24
191.43
189.95
185.53
177.83
166.48
151.10
131.35
107.08
78.58
46.80
13.39
-19.45
-49.47
-74.85
-94.69
-109.06
-118.78
-125.00
-128.66
-130.27
-129.82
-127.08
-121.83
-114.24
-104.96
-95.00
-85.49
-77.28
-70.75
-65.75
-61.88
-58.73
-56.17
-54.37
-53.65
-54.32
-56.68
-61.00
-67.47
-75.89
-85.20
-93.28
-97.17
-93.95
-81.78
-60.74
-32.83
-1.31
30.36
59.49
84.55
105.01
120.83
132.17
139.19
142.23
141.92
139.19
135.07
130.41
125.57
120.29
113.77
104.98
93.09
77.89
59.98
40.63
21.36
3.32
-12.97
-27.84
-42.03
-56.27
-70.75
-84.93
-97.66
-107.58
-113.64
-115.40
-113.19
-107.94
-101.11
-94.42
-89.65
-88.17
-90.42
-95.40
-100.61
-102.57
-97.85
-84.24
-61.59
-31.81
1.76
35.46
66.28
92.42
113.33
129.29
141.04
149.33
154.77
157.76
158.50
157.11
153.63
148.05
140.38
130.72
119.33
106.71
93.50
80.27
67.40
54.91
42.51
29.88
16.87
3.67
-9.24
-21.30
-32.06
-41.35
-49.25
-56.00
-61.84
-66.83
-70.87
-73.62
-74.64
-73.51
-69.99
-64.18
-56.50
-47.74
-38.83
-30.74
-24.26
-19.92
-17.87
-17.92
-19.60
-22.28
-25.32
-28.19
-30.55
-32.25
-33.26
-33.61
-33.35
-32.49
-31.00
-28.83
-25.98
-22.51
-18.65
-14.79
-11.38
-8.80
-7.29
-6.89
-7.45
-8.72
-10.42
-12.21
-13.66
-14.37
-14.02
-12.54
-10.10
-7.13
-4.02
-1.08
1.43
3.16
3.34
0.81
-5.68
-16.86
-32.45
-50.91
-69.78
-86.29
-98.08
-103.73
-102.81
-95.75
-83.54
-67.43
-48.87
-29.26
-9.95
8.02
23.90
37.26
47.98
56.06
61.68
65.12
66.71
66.84
65.81
63.78
60.65
56.06
49.45
40.31
28.45
14.27
-1.20
-16.47
-30.01
-40.69
-48.04
-52.25
-53.95
-53.87
-52.60
-50.35
-46.98
-41.92
-34.29
-23.03
-7.08
14.16
40.51
70.75
102.62
133.14
159.26
178.46
189.17
190.97
184.31
170.12
149.50
123.49
93.24
60.22
26.40
-5.97
-34.72
-58.31
-76.21
-88.84
-97.20
-102.28
-104.63
-104.28
-100.98
-94.59
-85.31
-73.77
-60.80
-47.25
-33.88
-21.45
-10.86
-3.06
0.94
0.40
-4.98
-14.95
-28.72
-44.98
-62.04
-77.96
-90.73
-98.64
-100.56
-96.20
-86.11
-71.49
-53.85
-34.64
-15.07
4.03
22.18
39.16
54.94
69.48
82.63
93.98
102.89
108.53
110.09
107.02
99.15
86.70
70.24
50.68
29.13
6.96
-14.43
-33.76
-50.17
-63.19
-72.79
-79.02
-81.81
-80.86
-75.72
-66.07
-51.98
-34.09
-13.71
7.26
26.52
41.78
51.23
54.06
50.63
42.35
31.09
18.57
5.94
-6.16
-17.29
-26.74
-33.57
-36.81
-36.06
-31.78
-25.06
-17.18
-8.87
-0.14
9.52
20.48
32.43
44.17
53.79
59.39
59.62
54.22
44.08
31.00
17.40
5.80
-1.60
-3.42
0.53
9.18
20.40
31.59
40.41
45.33
45.90
42.67
36.70
29.19
21.05
12.91
5.16
-1.84
-7.70
-11.98
-14.30
-14.48
-12.45
-8.23
-1.78
7.13
18.88
33.82
51.99
72.95
95.67
118.77
140.75
160.26
176.14
187.32
192.73
191.31
182.21
165.35
141.64
113.04
82.19
51.68
23.42
-1.84
-24.49
-45.68
-66.55
-87.69
-108.71
-128.41
-145.35
-158.49
-167.67
-173.64
-177.55
-180.36
-182.34
-182.91
-180.93
-175.22
-165.05
-150.57
-132.83
-113.64
-95.16
-79.34
-67.44
-59.82
-55.96
-54.97
-55.90
-58.00
-60.61
-62.87
-63.37
-60.13
-51.04
-34.50
-10.22
20.36
54.19
87.15
115.02
134.33
143.07
141.09
130.07
113.19
94.46
77.81
66.09
60.56
60.75
65.14
71.94
79.70
87.40
94.07
98.31
98.44
93.06
81.79
65.68
46.75
27.03
7.57
-11.98
-32.83
-56.16
-82.09
-109.25
-134.89
-155.56
-167.87
-169.22
-158.46
-136.23
-105.09
-69.07
-32.85
-0.63
24.86
42.87
54.36
61.13
64.92
66.71
66.68
64.56
60.14
53.49
44.87
34.50
22.44
8.72
-6.37
-22.00
-36.80
-49.21
-57.94
-62.27
-62.14
-58.02
-50.69
-41.20
-30.85
-21.09
-13.32
-8.42
-6.52
-6.89
-8.25
-9.30
-9.20
-7.76
-5.37
-2.56
0.24
3.00
5.98
9.52
13.89
19.17
25.29
32.14
39.56
47.26
54.63
60.76
64.50
64.93
61.78
55.71
48.25
41.25
36.22
33.73
33.27
33.54
33.21
31.43
28.11
23.84
19.41
15.41
11.94
8.49
4.19
-1.79
-9.69
-18.73
-26.99
-31.88
-30.93
-22.80
-7.98
11.34
32.03
51.12
66.67
78.01
85.35
89.10
89.51
86.59
80.41
71.43
60.49
48.55
36.37
24.38
12.85
2.20
-6.73
-12.83
-15.25
-13.96
-10.06
-5.42
-1.96
-0.72
-1.40
-2.59
-2.60
-0.24
4.64
11.39
19.18
27.55
36.58
46.60
57.56
68.72
78.67
85.67
88.34
86.08
79.08
68.02
53.48
35.49
13.53
-12.95
-43.67
-76.69
-108.32
-133.96
-149.62
-153.49
-146.77
-133.16
-117.43
-103.65
-93.88
-88.06
-84.73
-82.09
-78.90
-74.69
-69.61
-64.11
-58.77
-54.25
-51.22
-50.16
-50.98
-52.76
-53.82
-52.16
-46.10
-34.86
-18.72
1.14
23.06
45.33
66.40
84.94
99.89
110.53
116.52
117.97
115.39
109.46
100.85
89.95
76.87
61.47
43.65
23.43
1.16
-22.38
-46.00
-68.02
-86.42
-99.16
-104.68
-102.37
-92.84
-77.58
-58.38
-36.57
-12.68
13.39
41.63
71.23
100.32
126.31
146.72
159.94
165.60
164.26
156.84
144.06
126.40
104.34
78.89
51.90
25.86
3.37
-13.43
-23.45
-26.74
-24.50
-18.94
-13.00
-9.90
-12.43
-22.16
-38.77
-60.03
-82.53
-102.73
-118.02
-127.17
-130.01
-126.82
-117.81
-103.12
-83.17
-59.18
-33.19
-7.67
15.16
33.88
47.93
57.41
62.55
63.44
59.92
51.76
38.93
21.82
1.30
-21.28
-44.28
-66.04
-85.14
-100.59
-111.90
-119.03
-122.14
-121.57
-117.64
-110.73
-101.34
-90.04
-77.49
-64.32
-51.06
-38.10
-25.69
-13.97
-2.95
7.44
17.30
26.66
35.41
43.30
50.05
55.40
59.27
61.78
63.25
64.14
64.96
66.22
68.31
71.48
75.73
80.83
86.27
91.41
95.53
97.96
98.14
95.67
90.33
82.04
70.93
57.34
41.82
25.22
8.56
-7.06
-20.72
-31.81
-40.17
-46.01
-49.74
-51.79
-52.45
-51.95
-50.48
-48.38
-46.13
-44.27
-43.30
-43.51
-44.96
-47.43
-50.52
-53.79
-56.92
-59.82
-62.61
-65.59
-68.99
-72.80
-76.74
-80.23
-82.57
-83.11
-81.45
-77.45
-71.27
-63.30
-54.03
-44.03
-33.85
-24.00
-14.94
-7.05
-0.62
4.21
7.45
9.29
10.02
10.02
9.63
9.17
8.89
8.97
9.48
10.36
11.44
12.48
13.30
13.81
14.07
14.22
14.40
14.71
15.06
15.27
15.06
14.18
12.51
10.07
7.10
3.87
0.69
-2.26
-4.91
-7.32
-9.59
-11.77
-13.77
-15.38
-16.20
-15.83
-13.94
-10.43
-5.46
0.55
7.03
13.35
18.90
23.22
26.04
27.28
27.11
25.83
23.81
21.39
18.85
16.35
14.02
12.02
10.52
9.62
9.31
9.47
9.92
10.46
11.00
11.49
11.95
12.33
12.53
12.39
11.77
10.61
8.99
7.12
5.23
3.55
2.17
1.09
0.18
-0.71
-1.76
-3.10
-4.79
-6.81
-8.99
-11.02
-12.44
-12.76
-11.64
-8.99
-5.08
-0.43
4.36
8.80
12.60
15.67
18.03
19.70
20.69
20.98
20.65
19.82
18.70
17.41
16.02
14.55
12.98
11.35
9.78
8.42
7.39
6.73
6.38
6.18
5.96
5.53
4.79
3.70
2.26
0.53
-1.45
-3.60
-5.84
-8.09
-10.30
-12.49
-14.71
-17.03
-19.40
-21.60
-23.24
-23.86
-23.06
-20.69
-16.83
-11.87
-6.30
-0.65
4.66
9.33
13.17
16.14
18.24
19.53
20.10
20.10
19.70
19.12
18.55
18.12
17.81
17.52
17.14
16.66
16.17
15.84
15.81
16.08
16.41
16.40
15.68
14.05
11.61
8.73
5.92
3.54
1.68
0.04
-1.89
-4.59
-8.25
-12.62
-17.09
-20.94
-23.66
-25.16
-25.78
-25.98
-26.08
-25.97
-25.17
-23.00
-18.91
-12.72
-4.66
4.70
14.46
23.32
29.62
31.66
28.38
20.15
9.18
-0.89
-6.18
-4.07
5.81
21.52
39.67
56.86
70.72
80.28
85.55
86.84
84.13
76.93
64.56
46.69
23.83
-2.39
-29.41
-54.22
-74.14
-87.47
-93.85
-94.00
-89.23
-80.82
-69.71
-56.50
-41.75
-26.21
-10.72
4.01
17.75
30.96
44.51
59.19
75.11
91.29
105.82
116.44
121.39
120.07
113.23
102.54
89.86
76.45
62.70
48.30
32.83
16.26
-0.80
-17.35
-32.41
-45.49
-56.71
-66.66
-76.08
-85.42
-94.68
-103.30
-110.35
-114.85
-116.09
-113.85
-108.48
-100.85
-92.22
-84.01
-77.62
-74.15
-74.21
-77.57
-83.03
-88.44
-90.96
-87.66
-76.26
-55.81
-27.21
6.85
42.40
75.24
102.02
121.10
132.70
138.38
140.09
139.16
135.70
128.78
116.85
98.50
72.94
40.36
2.01
-39.66
-81.14
-118.19
-146.62
-163.16
-166.37
-156.95
-137.46
-111.56
-82.97
-54.71
-28.74
-5.91
13.70
30.58
45.40
58.93
71.86
84.74
97.80
110.90
123.50
134.60
143.03
147.69
147.85
143.35
134.43
121.45
104.60
83.76
58.74
29.64
-2.75
-36.81
-70.26
-100.56
-125.46
-143.34
-153.45
-155.89
-151.43
-141.27
-126.76
-109.15
-89.39
-68.11
-45.59
-22.00
2.41
27.16
51.42
74.13
94.11
110.39
122.35
129.84
133.10
132.68
129.32
123.85
117.14
109.93
102.67
95.25
86.90
76.19
61.48
41.44
15.65
-14.97
-48.15
-80.62
-108.77
-129.50
-140.80
-142.19
-134.70
-120.61
-102.93
-84.76
-68.78
-56.84
-49.80
-47.62
-49.60
-54.73
-61.99
-70.52
-79.74
-89.19
-98.31
-106.25
-111.76
-113.19
-108.79
-97.04
-77.17
-49.43
-15.33
22.60
61.17
97.25
128.38
153.21
171.52
183.93
191.31
194.30
192.97
186.92
175.56
158.48
135.78
108.32
77.61
45.73
15.10
-11.97
-33.57
-48.51
-56.37
-57.45
-52.58
-42.89
-29.67
-14.24
1.94
17.26
29.88
37.91
39.83
34.99
23.93
8.22
-10.14
-29.41
-48.64
-67.46
-85.51
-101.80
-114.62
-122.08
-123.07
-117.92
-108.40
-96.90
-85.42
-74.89
-65.21
-55.88
-46.69
-38.06
-30.92
-26.02
-23.49
-22.61
-22.09
-20.60
-17.25
-12.00
-5.55
0.91
6.15
9.29
10.06
8.79
6.23
3.24
0.52
-1.56
-2.89
-3.59
-3.83
-3.85
-3.90
-4.24
-5.11
-6.71
-9.07
-12.15
-15.88
-20.19
-25.06
-30.45
-36.27
-42.25
-48.01
-53.03
-56.78
-58.74
-58.44
-55.56
-49.94
-41.67
-31.17
-19.18
-6.76
4.89
14.63
21.70
25.89
27.61
27.70
27.06
26.35
25.81
25.27
24.45
23.15
21.34
19.07
16.42
13.39
10.17
7.23
5.38
5.53
8.34
13.92
21.63
30.42
39.11
46.68
52.35
55.46
55.35
51.54
44.03
33.61
21.90
10.98
2.73
-1.83
-2.92
-1.95
-0.99
-2.05
-6.50
-14.76
-26.29
-39.86
-53.73
-65.80
-73.70
-75.04
-68.03
-52.17
-28.95
-1.91
24.09
44.26
55.43
56.98
50.87
40.59
29.76
20.97
15.28
12.46
11.62
11.79
12.20
12.34
11.75
9.93
6.36
0.54
-7.82
-18.76
-32.00
-46.95
-62.74
-78.26
-92.30
-103.58
-110.94
-113.28
-109.76
-100.04
-84.55
-64.72
-42.90
-21.88
-4.09
8.97
16.96
20.39
20.11
16.78
10.80
2.55
-7.31
-17.76
-27.64
-36.09
-42.84
-48.27
-53.23
-58.80
-65.96
-75.28
-86.51
-98.35
-108.39
-113.69
-111.72
-101.37
-83.49
-60.62
-35.96
-12.12
9.72
29.91
49.83
70.85
93.70
118.23
143.52
168.27
191.12
210.69
225.56
234.18
235.05
227.05
209.81
184.04
151.67
115.58
79.23
46.15
19.37
0.93
-8.52
-9.81
-5.09
2.78
10.96
17.25
20.53
20.61
17.90
12.95
6.27
-1.73
-10.46
-19.12
-26.73
-32.45
-35.90
-37.29
-37.31
-36.81
-36.48
-36.62
-37.19
-37.95
-38.58
-38.77
-38.24
-36.71
-33.96
-29.87
-24.51
-18.10
-10.95
-3.39
4.30
11.83
18.90
25.12
30.07
33.44
35.14
35.32
34.37
32.77
31.03
29.47
28.25
27.28
26.36
25.26
23.76
21.76
19.24
16.29
13.07
9.76
6.51
3.45
0.60
-2.09
-4.65
-7.07
-9.24
-11.06
-12.50
-13.74
-15.12
-17.01
-19.64
-22.84
-26.15
-28.85
-30.24
-29.80
-27.32
-22.89
-16.90
-9.95
-2.67
4.31
10.54
15.76
19.93
23.17
25.67
27.62
29.20
30.61
32.02
33.54
35.25
37.12
39.02
40.78
42.30
43.50
44.43
45.13
45.69
46.17
46.62
47.04
47.41
47.69
47.83
47.84
47.77
47.77
48.06
48.83
50.08
51.57
52.74
52.84
51.16
47.21
40.87
32.44
22.54
12.00
1.81
-7.07
-13.79
-17.89
-19.58
-19.84
-20.32
-22.85
-28.85
-38.72
-51.62
-65.64
-78.35
-87.44
-91.20
-88.77
-80.22
-66.44
-48.99
-29.95
-11.64
3.78
14.71
20.43
21.19
18.06
12.65
6.59
1.19
-2.81
-5.36
-6.85
-7.82
-8.45
-8.47
-7.22
-4.09
1.02
7.42
13.73
18.29
19.53
16.46
8.75
-3.28
-18.76
-36.43
-54.86
-72.79
-89.41
-104.64
-119.06
-133.53
-148.60
-163.90
-177.77
-187.45
-189.63
-181.23
-160.35
-126.97
-83.40
-34.19
14.46
55.99
84.90
98.19
96.06
81.67
60.12
36.93
16.70
2.25
-5.53
-7.43
-5.30
-1.57
1.28
1.26
-2.71
-10.45
-20.55
-30.73
-38.48
-41.75
-39.67
-32.87
-23.31
-13.80
-7.01
-4.63
-6.79
-12.05
-17.95
-21.94
-22.26
-18.36
-10.86
-1.02
9.94
21.24
32.73
44.65
57.15
70.01
82.47
93.40
101.70
106.68
108.21
106.67
102.63
96.65
89.17
80.59
71.40
62.28
54.01
47.24
42.24
38.84
36.50
34.57
32.54
30.18
27.47
24.53
21.37
17.85
13.72
8.73
2.78
-3.90
-10.75
-16.93
-21.57
-23.96
-23.82
-21.38
-17.33
-12.55
-7.86
-3.82
-0.62
1.73
3.34
4.29
4.64
4.60
4.49
4.76
5.78
7.67
10.27
13.15
15.84
18.02
19.52
20.35
20.55
20.15
19.13
17.48
15.24
12.49
9.38
6.09
2.87
-0.00
-2.23
-3.65
-4.32
-4.58
-4.91
-5.75
-7.25
-9.22
-11.22
-12.85
-13.94
-14.64
-15.39
-16.61
-18.55
-21.14
-24.06
-26.77
-28.65
-28.92
-26.74
-21.38
-12.50
-0.43
13.81
28.74
42.97
55.59
66.32
75.30
82.60
87.92
90.55
89.73
85.14
77.18
66.85
55.35
43.66
32.25
21.25
10.63
0.50
-8.86
-17.09
-23.94
-29.39
-33.70
-37.24
-40.36
-43.30
-46.10
-48.73
-51.05
-52.90
-54.16
-54.79
-54.81
-54.35
-53.58
-52.75
-52.04
-51.56
-51.38
-51.40
-51.47
-51.34
-50.73
-49.34
-46.94
-43.43
-38.90
-33.62
-27.95
-22.30
-17.00
-12.23
-8.03
-4.28
-0.79
2.57
5.87
9.10
12.12
14.73
16.77
18.12
18.80
18.89
18.58
18.04
17.40
16.74
16.07
15.33
14.50
13.58
12.57
11.50
10.37
9.14
7.79
6.26
4.55
2.62
0.48
-1.88
-4.44
-7.14
-9.83
-12.29
-14.18
-15.13
-14.88
-13.26
-10.40
-6.60
-2.30
2.03
6.02
9.47
12.29
14.51
16.20
17.43
18.27
18.79
19.03
19.00
18.70
18.14
17.34
16.39
15.34
14.27
13.26
12.36
11.67
11.28
11.23
11.48
11.84
12.08
11.96
11.36
10.27
8.75
6.83
4.52
1.80
-1.39
-5.01
-9.02
-13.26
-17.54
-21.54
-24.87
-27.03
-27.57
-26.16
-22.84
-17.96
-12.23
-6.40
-1.11
3.31
6.84
9.66
11.97
13.90
15.43
16.50
17.07
17.22
17.07
16.77
16.41
15.94
15.27
14.30
13.04
11.60
10.21
9.09
8.37
8.04
7.91
7.74
7.30
6.42
5.11
3.40
1.38
-0.93
-3.52
-6.36
-9.40
-12.53
-15.63
-18.65
-21.59
-24.54
-27.52
-30.43
-33.00
-34.83
-35.51
-34.78
-32.56
-29.05
-24.58
-19.51
-14.22
-8.98
-4.02
0.51
4.48
7.83
10.51
12.55
14.02
15.02
15.66
16.04
16.21
16.20
16.03
15.71
15.30
14.84
14.39
13.99
13.61
13.21
12.74
12.17
11.51
10.80
10.09
9.39
8.64
7.68
6.37
4.63
2.56
0.42
-1.48
-2.93
-3.93
-4.68
-5.50
-6.70
-8.42
-10.58
-12.99
-15.31
-17.17
-18.18
-18.01
-16.48
-13.66
-9.87
-5.63
-1.51
2.07
4.92
7.10
8.75
10.00
10.93
11.55
11.86
11.94
11.87
11.76
11.65
11.50
11.24
10.84
10.38
10.01
9.87
10.01
10.33
10.62
10.66
10.32
9.58
8.51
7.22
5.81
4.38
3.01
1.74
0.63
-0.36
-1.35
-2.49
-3.91
-5.70
-7.83
-10.23
-12.72
-15.13
-17.25
-18.85
-19.74
-19.81
-19.02
-17.39
-14.98
-11.90
-8.38
-4.76
-1.48
1.01
2.43
2.84
2.59
2.20
2.07
2.24
2.39
1.99
0.56
-1.97
-5.17
-8.28
-10.56
-11.62
-11.59
-11.03
-10.67
-11.07
-12.54
-15.11
-18.67
-22.95
-27.34
-30.80
-31.98
-29.70
-23.61
-14.71
-5.21
2.19
5.38
3.71
-1.93
-9.52
-16.93
-22.57
-25.66
-25.82
-22.58
-15.10
-2.35
16.31
40.50
68.61
98.04
125.85
149.61
167.96
180.67
188.28
191.25
189.49
182.18
168.33
147.61
120.92
90.33
58.30
26.75
-3.54
-32.57
-60.34
-85.99
-107.72
-123.47
-132.12
-134.15
-131.44
-126.23
-119.79
-111.80
-100.72
-84.89
-63.66
-37.95
-9.99
17.44
41.67
60.58
72.59
76.65
72.36
60.23
41.99
20.55
-0.54
-17.98
-29.46
-34.09
-32.17
-24.64
-12.60
2.99
21.12
40.54
59.55
76.22
88.82
96.27
98.43
96.09
90.58
83.28
75.24
66.87
58.01
48.27
37.40
25.67
14.02
3.90
-3.21
-6.28
-5.20
-0.92
4.81
10.03
13.14
13.37
10.93
6.67
1.59
-3.58
-8.57
-13.50
-18.64
-24.17
-30.19
-36.62
-43.32
-50.09
-56.68
-62.87
-68.76
-75.00
-82.88
-94.04
-109.99
-131.32
-157.13
-184.80
-210.44
-229.76
-239.22
-236.98
-223.39
-200.69
-172.23
-141.46
-111.10
-82.75
-57.08
-34.14
-13.75
4.27
20.23
34.55
47.89
60.85
73.68
85.85
95.87
101.56
100.62
91.55
74.31
50.62
23.51
-3.31
-26.30
-42.58
-50.18
-48.11
-36.45
-16.57
8.89
36.20
61.35
80.92
92.87
96.87
93.92
85.63
73.53
58.55
41.14
21.57
0.33
-21.71
-43.34
-63.22
-80.10
-92.83
-100.36
-101.71
-96.01
-82.85
-62.56
-36.41
-6.56
24.39
53.87
79.89
101.12
116.82
126.45
129.36
124.86
112.46
92.32
65.60
34.42
1.46
-30.61
-59.56
-83.69
-101.76
-112.71
-115.68
-110.15
-96.39
-75.65
-50.23
-23.12
2.68
24.70
41.48
52.62
58.55
60.14
58.27
53.64
46.73
37.92
27.57
16.12
4.07
-8.08
-19.85
-30.78
-40.43
-48.34
-54.12
-57.56
-58.66
-57.63
-54.87
-50.84
-46.05
-40.90
-35.68
-30.57
-25.67
-21.03
-16.80
-13.16
-10.26
-8.20
-6.93
-6.23
-5.82
-5.40
-4.74
-3.73
-2.40
-0.85
0.73
2.17
3.34
4.14
4.60
4.83
4.94
5.04
5.13
5.16
5.05
4.74
4.17
3.35
2.24
0.82
-0.92
-2.99
-5.27
-7.63
-9.92
-12.07
-14.17
-16.42
-19.09
-22.26
-25.86
-29.59
-32.97
-35.49
-36.73
-36.48
-34.69
-31.60
-27.54
-22.93
-18.10
-13.34
-8.76
-4.46
-0.51
2.95
5.73
7.72
8.90
9.41
9.49
9.34
9.10
8.83
8.58
8.42
8.50
8.99
10.00
11.50
13.29
15.05
16.49
17.37
17.59
17.20
16.33
15.09
13.54
11.68
9.51
7.05
4.42
1.78
-0.66
-2.76
-4.48
-5.87
-7.05
-8.19
-9.41
-10.86
-12.70
-15.04
-17.86
-20.99
-24.00
-26.33
-27.38
-26.71
-24.19
-20.03
-14.67
-8.71
-2.66
3.10
8.33
12.91
16.77
19.88
22.18
23.69
24.50
24.75
24.67
24.48
24.32
24.27
24.34
24.50
24.71
24.95
25.20
25.46
25.71
25.93
26.04
25.96
25.61
24.94
23.96
22.74
21.32
19.78
18.07
16.16
13.98
11.54
8.92
6.24
3.63
1.18
-1.06
-3.08
-4.92
-6.63
-8.35
-10.24
-12.42
-14.87
-17.32
-19.35
-20.48
-20.30
-18.64
-15.56
-11.35
-6.36
-1.01
4.32
9.36
13.88
17.81
21.11
23.81
25.92
27.39
28.20
28.39
28.11
27.58
26.98
26.40
25.80
25.12
24.36
23.62
23.06
22.81
22.83
22.94
22.88
22.46
21.62
20.41
18.99
17.50
16.06
14.74
13.54
12.40
11.22
9.85
8.15
6.09
3.73
1.25
-1.16
-3.38
-5.44
-7.53
-9.87
-12.64
-15.85
-19.31
-22.56
-25.04
-26.22
-25.75
-23.59
-20.02
-15.51
-10.55
-5.55
-0.72
3.86
8.14
12.06
15.52
18.40
20.65
22.29
23.37
23.97
24.21
24.18
24.05
24.01
24.21
24.73
25.51
26.36
27.09
27.56
27.81
27.99
28.35
29.04
30.04
31.14
32.03
32.45
32.35
31.93
31.56
31.61
32.26
33.37
34.62
35.60
36.03
35.93
35.54
35.25
35.55
36.86
39.57
43.92
49.95
57.40
65.78
74.53
83.26
91.94
100.87
110.39
120.49
130.37
138.36
142.26
139.85
129.50
110.66
84.03
51.48
15.60
-20.92
-55.87
-88.05
-117.28
-144.17
-169.49
-193.70
-216.74
-238.00
-256.61
-271.62
-282.09
-287.03
-285.37
-276.07
-258.47
-232.49
-198.64
-157.86
-111.20
-59.85
-5.41
49.65
101.99
147.69
183.20
206.20
216.10
213.83
201.30
180.76
154.45
124.69
94.04
65.23
40.76
22.24
9.97
3.05
-0.03
-0.77
-0.21
1.07
2.67
4.00
4.30
2.81
-0.91
-6.75
-14.08
-21.98
-29.54
-36.12
-41.30
-44.87
-46.71
-46.82
-45.36
-42.77
-39.71
-36.90
-34.99
-34.32
-34.92
-36.52
-38.66
-40.91
-42.98
-44.82
-46.57
-48.51
-50.92
-53.93
-57.47
-61.19
-64.49
-66.67
-67.12
-65.41
-61.51
-55.78
-48.82
-41.35
-33.97
-27.10
-20.91
-15.46
-10.75
-6.74
-3.39
-0.59
1.78
3.82
5.54
6.80
7.42
7.25
6.28
4.74
3.02
1.57
0.75
0.67
1.21
2.00
2.64
2.79
2.27
1.08
-0.67
-2.79
-5.14
-7.57
-9.93
-12.13
-14.17
-16.10
-18.04
-20.02
-21.94
-23.46
-24.11
-23.39
-21.05
-17.19
-12.17
-6.53
-0.78
4.72
9.80
14.37
18.40
21.85
24.67
26.89
28.58
29.84
30.78
31.42
31.75
31.71
31.24
30.43
29.38
28.22
26.99
25.61
23.93
21.78
19.14
16.14
13.08
10.25
7.90
6.07
4.74
3.74
2.94
2.19
1.35
0.31
-1.04
-2.74
-4.77
-7.05
-9.55
-12.28
-15.27
-18.49
-21.79
-24.78
-26.94
-27.71
-26.69
-23.75
-19.16
-13.44
-7.27
-1.24
4.25
9.06
13.24
16.90
20.12
22.89
25.21
27.06
28.52
29.75
30.84
31.78
32.43
32.61
32.18
31.16
29.72
28.18
26.79
25.74
25.01
24.46
23.85
22.97
21.74
20.20
18.51
16.87
15.41
14.13
12.88
11.41
9.52
7.14
4.37
1.46
-1.37
-3.97
-6.40
-8.88
-11.70
-15.04
-18.88
-22.95
-26.71
-29.57
-31.00
-30.66
-28.54
-24.88
-20.12
-14.79
-9.39
-4.32
0.13
3.78
6.60
8.61
9.91
10.64
10.96
10.98
10.85
10.66
10.45
10.23
9.94
9.55
9.00
8.27
7.35
6.29
5.11
3.87
2.62
1.41
0.31
-0.68
-1.54
-2.31
-3.00
-3.58
-3.98
-4.06
-3.79
-3.18
-2.38
-1.59
-1.02
-0.85
-1.22
-2.20
-3.83
-6.00
-8.48
-10.87
-12.67
-13.42
-12.78
-10.73
-7.46
-3.38
1.05
5.45
9.56
13.32
16.75
19.91
22.76
25.18
26.93
27.79
27.62
26.48
24.62
22.35
20.02
17.88
16.10
14.78
13.95
13.57
13.52
13.58
13.55
13.23
12.54
11.50
10.18
8.63
6.81
4.61
1.94
-1.23
-4.79
-8.57
-12.37
-16.08
-19.66
-23.12
-26.46
-29.59
-32.44
-34.94
-37.10
-38.92
-40.36
-41.24
-41.21
-39.87
-36.93
-32.32
-26.26
-19.22
-11.80
-4.55
2.11
7.93
12.82
16.80
19.94
22.31
24.05
25.30
26.18
26.75
27.02
26.92
26.47
25.77
25.06
24.66
24.78
25.40
26.22
26.77
26.58
25.46
23.58
21.36
19.30
17.69
16.43
15.11
13.26
10.62
7.43
4.34
2.19
1.63
2.77
5.18
7.95
10.10
10.90
10.19
8.46
6.86
6.93
10.30
18.32
31.54
49.36
69.87
90.10
106.66
116.71
118.70
112.74
100.22
82.92
62.12
38.12
10.56
-20.62
-54.30
-87.78
-117.43
-139.73
-152.60
-155.94
-151.40
-141.42
-128.32
-113.68
-98.33
-82.78
-67.58
-53.37
-40.72
-29.78
-20.24
-11.49
-3.07
5.10
12.58
18.62
22.57
24.10
23.33
20.76
17.08
13.00
9.14
5.99
3.81
2.66
2.35
2.57
3.04
3.58
4.22
5.07
6.16
7.41
8.58
9.36
9.51
8.97
7.77
6.06
4.01
1.78
-0.49
-2.73
-4.87
-6.93
-8.92
-10.80
-12.49
-13.83
-14.67
-14.94
-14.71
-14.18
-13.63
-13.32
-13.35
-13.70
-14.20
-14.66
-14.98
-15.16
-15.32
-15.64
-16.26
-17.24
-18.52
-19.87
-20.99
-21.51
-21.13
-19.66
-17.11
-13.66
-9.63
-5.31
-0.98
3.18
6.98
10.30
13.02
15.10
16.51
17.29
17.43
16.96
15.93
14.48
12.80
11.11
9.61
8.40
7.49
6.82
6.35
6.01
5.75
5.52
5.23
4.76
4.03
2.99
1.69
0.23
-1.22
-2.52
-3.65
-4.73
-5.99
-7.67
-9.87
-12.47
-15.11
-17.32
-18.57
-18.49
-16.90
-13.86
-9.66
-4.75
0.37
5.27
9.64
13.35
16.35
18.63
20.19
20.95
20.89
20.04
18.58
16.74
14.79
12.91
11.21
9.70
8.35
7.15
6.11
5.25
4.59
4.05
3.52
2.85
1.96
0.83
-0.44
-1.71
-2.90
-4.01
-5.23
-6.79
-8.95
-11.76
-15.04
-18.41
-21.36
-23.40
-24.21
-23.61
-21.61
-18.33
-13.99
-8.91
-3.50
1.81
6.60
10.62
13.69
15.81
17.01
17.37
17.00
16.09
14.85
13.53
12.29
11.17
10.13
9.09
8.07
7.17
6.61
6.51
6.88
7.52
8.16
8.46
8.18
7.18
5.49
3.28
0.83
-1.61
-3.84
-5.89
-7.98
-10.41
-13.39
-16.88
-20.48
-23.53
-25.29
-25.20
-23.05
-18.97
-13.38
-6.83
0.15
7.15
13.95
20.44
26.67
32.62
38.17
43.07
47.02
49.87
51.74
53.10
54.64
56.99
60.45
64.89
69.78
74.52
78.71
82.39
86.00
90.24
95.85
103.29
112.44
122.36
131.13
136.16
134.81
125.26
107.13
81.88
52.39
22.15
-5.81
-29.78
-49.62
-66.46
-81.96
-97.58
-113.94
-130.75
-147.00
-161.39
-172.80
-180.59
-184.57
-184.91
-181.98
-176.28
-168.44
-159.26
-149.64
-140.42
-132.10
-124.68
-117.55
-109.67
-99.93
-87.59
-72.55
-55.30
-36.68
-17.46
2.01
21.71
41.78
62.12
82.33
101.76
119.84
136.32
151.36
165.37
178.64
191.19
202.62
212.26
219.27
222.77
221.84
215.61
203.35
184.65
159.63
129.01
94.12
56.75
18.93
-17.32
-50.24
-78.57
-101.65
-119.48
-132.47
-141.27
-146.28
-147.55
-144.83
-137.92
-127.16
-113.64
-99.09
-85.40
-74.08
-65.97
-61.17
-59.25
-59.60
-61.62
-64.62
-67.81
-70.23
-70.96
-69.42
-65.53
-59.74
-52.75
-45.19
-37.45
-29.66
-21.86
-14.17
-6.84
-0.21
5.49
10.25
14.25
17.73
20.86
23.61
25.90
27.66
29.04
30.33
31.89
33.87
36.15
38.37
40.16
41.34
42.11
42.91
44.30
46.58
49.70
53.26
56.73
59.71
62.05
63.98
65.91
68.36
71.71
76.10
81.23
86.46
90.78
93.06
92.31
87.95
80.06
69.40
57.20
44.83
33.54
24.14
17.02
12.16
9.32
8.12
8.14
8.89
9.87
10.57
10.54
9.48
7.31
4.17
0.44
-3.41
-6.89
-9.62
-11.34
-11.98
-11.41
-9.37
-5.37
1.24
11.06
24.20
39.82
55.78
68.72
74.63
69.78
51.78
20.37
-22.30
-71.98
-123.30
-170.79
-209.86
-237.33
-251.52
-252.14
-240.07
-217.34
-187.03
-153.00
-119.36
-89.68
-66.25
-49.70
-39.17
-32.97
-29.38
-27.29
-26.35
-26.63
-28.15
-30.56
-33.06
-34.64
-34.44
-32.02
-27.45
-21.26
-14.17
-6.90
-0.02
6.12
11.33
15.52
18.71
20.94
22.30
22.93
23.04
22.84
22.56
22.40
22.45
22.63
22.82
22.87
22.72
22.43
22.13
21.97
21.93
21.91
21.75
21.33
20.67
19.89
19.16
18.60
18.28
18.16
18.17
18.21
18.18
17.97
17.54
16.90
16.11
15.28
14.43
13.45
12.07
9.96
6.85
2.71
-2.24
-7.55
-12.72
-17.34
-21.29
-24.67
-27.69
-30.50
-33.01
-34.94
-35.89
-35.52
-33.73
-30.65
-26.56
-21.77
-16.54
-11.10
-5.65
-0.48
4.14
7.98
10.96
13.14
14.65
15.64
16.23
16.52
16.63
16.67
16.75
16.85
16.82
16.50
15.73
14.57
13.16
11.75
10.49
9.46
8.63
7.95
7.38
6.93
6.53
6.08
5.42
4.43
3.07
1.46
-0.27
-1.97
-3.57
-5.06
-6.46
-7.77
-8.93
-9.93
-10.80
-11.67
-12.65
-13.80
-15.04
-16.26
-17.33
-18.26
-19.14
-20.06
-21.04
-21.86
-22.15
-21.43
-19.27
-15.43
-9.94
-3.17
4.27
11.66
18.33
23.88
28.28
31.92
35.41
39.34
43.96
49.11
54.23
58.62
61.74
63.40
63.92
64.10
65.18
68.64
75.79
87.11
101.47
115.78
125.32
125.10
111.57
84.10
45.38
0.60
-44.22
-83.85
-114.80
-135.50
-145.82
-146.69
-139.86
-127.85
-113.81
-100.99
-92.05
-88.45
-90.32
-96.79
-106.43
-117.48
-127.91
-135.35
-137.23
-131.29
-116.25
-92.34
-61.42
-26.56
8.66
40.86
67.39
86.63
98.04
102.24
100.88
96.31
91.01
86.98
85.17
85.40
86.78
88.19
88.79
88.18
86.38
83.55
79.78
75.00
69.04
61.78
53.20
43.49
33.09
22.61
12.78
4.21
-2.73
-8.03
-11.92
-14.69
-16.40
-16.81
-15.57
-12.51
-7.95
-2.73
2.11
5.74
7.84
8.74
9.22
10.19
12.51
16.83
23.36
31.46
39.28
43.74
41.13
28.42
4.58
-28.64
-67.03
-105.17
-138.09
-162.39
-176.64
-180.88
-175.96
-163.08
-143.82
-120.31
-95.21
-71.31
-50.89
-35.08
-23.68
-15.44
-8.60
-1.53
6.82
16.60
27.08
36.93
44.61
48.95
49.57
47.04
42.61
37.73
33.55
30.40
27.51
23.10
14.84
0.85
-19.18
-43.25
-67.14
-85.52
-93.83
-89.90
-74.71
-51.67
-24.99
2.02
27.81
52.29
75.73
97.76
116.98
131.53
139.90
141.67
137.57
129.15
118.03
105.56
92.69
80.24
69.19
60.78
56.31
56.60
61.54
69.71
78.59
85.11
86.53
81.41
70.03
54.38
37.35
21.78
9.56
1.27
-3.67
-6.55
-8.93
-12.38
-18.36
-28.10
-42.31
-60.76
-82.18
-104.53
-125.67
-144.09
-159.41
-172.28
-183.75
-194.56
-204.61
-212.89
-217.77
-217.63
-211.41
-198.94
-181.26
-160.60
-140.25
-123.88
-114.33
-112.34
-115.86
-120.42
-120.75
-112.97
-96.16
-72.71
-47.15
-24.38
-7.94
0.65
1.80
-2.60
-9.73
-16.03
-17.77
-11.83
3.17
26.21
54.03
82.33
107.17
126.14
138.74
145.92
149.29
150.46
150.64
150.62
150.74
150.91
150.61
149.12
145.78
140.20
132.17
121.47
107.73
90.49
69.62
45.54
19.39
-7.29
-32.99
-56.52
-77.03
-93.75
-105.69
-111.63
-110.48
-101.71
-85.82
-64.31
-39.35
-13.22
12.22
35.65
56.36
73.88
87.75
97.40
102.18
101.56
95.37
83.86
67.63
47.56
24.78
0.79
-22.46
-42.69
-57.80
-66.43
-68.49
-65.33
-59.43
-53.69
-50.74
-52.28
-58.59
-68.42
-79.08
-87.04
-88.87
-82.29
-66.99
-44.84
-19.28
5.76
27.09
43.04
53.43
59.12
61.16
60.32
56.88
50.98
43.00
33.80
24.71
17.08
12.04
10.23
11.93
17.23
26.23
38.82
54.54
72.35
90.76
108.11
122.96
134.24
141.24
143.36
139.95
130.34
114.01
90.86
61.37
26.59
-11.87
-52.00
-91.53
-128.05
-159.25
-183.07
-197.87
-202.53
-196.56
-180.19
-154.53
-121.54
-83.97
-45.05
-8.03
24.21
49.50
66.68
75.81
78.20
76.26
72.98
71.24
72.86
77.91
84.43
88.89
87.21
76.27
54.99
24.84
-10.66
-47.10
-80.38
-107.38
-126.10
-135.24
-133.97
-122.11
-100.59
-71.88
-39.83
-8.84
17.28
36.29
47.76
52.80
53.35
51.52
49.20
47.84
48.46
51.52
57.05
64.69
73.85
83.89
94.09
103.84
112.59
120.02
126.01
130.63
133.73
134.80
132.90
126.97
116.32
101.10
82.32
61.58
40.56
20.59
2.59
-12.87
-25.23
-33.87
-38.17
-37.70
-32.42
-22.81
-9.88
5.01
20.23
34.19
45.62
53.77
58.48
60.02
58.94
55.87
51.47
46.22
40.37
33.75
25.82
15.77
2.85
-13.31
-32.50
-54.07
-77.05
-100.39
-122.94
-143.43
-160.48
-172.79
-179.48
-180.35
-175.88
-166.94
-154.45
-138.99
-120.86
-100.18
-77.20
-52.51
-27.08
-2.18
20.79
40.58
56.19
67.08
73.19
74.89
72.88
68.04
61.25
53.38
45.11
36.92
29.01
21.25
13.23
4.49
-5.33
-16.11
-27.21
-37.52
-45.82
-51.11
-53.02
-51.91
-48.64
-44.20
-39.34
-34.30
-28.90
-22.86
-16.13
-9.08
-2.43
3.05
6.81
8.70
8.86
7.64
5.35
2.37
-0.86
-3.78
-5.78
-6.46
-5.82
-4.31
-2.56
-1.12
-0.26
0.16
0.43
0.82
1.38
1.99
2.49
2.85
3.16
3.59
4.23
4.97
5.43
5.12
3.57
0.57
-3.76
-8.88
-13.95
-18.00
-20.19
-19.97
-17.29
-12.53
-6.37
0.41
7.20
13.63
19.57
25.05
30.10
34.68
38.60
41.69
43.77
44.77
44.72
43.76
42.11
40.04
37.86
35.77
33.91
32.31
30.95
29.82
28.97
28.45
28.19
28.01
27.55
26.49
24.63
22.04
19.02
16.00
13.33
11.10
9.18
7.22
4.93
2.12
-1.14
-4.58
-7.76
-10.20
-11.49
-11.35
-9.69
-6.60
-2.32
2.78
8.31
13.92
19.33
24.37
28.94
32.99
36.45
39.20
41.17
42.36
42.94
43.20
43.52
44.19
45.34
46.77
48.09
48.87
48.90
48.52
48.60
50.23
54.02
59.47
64.75
67.22
64.41
55.14
39.95
20.86
0.71
-17.73
-32.26
-41.50
-45.14
-43.99
-40.12
-36.42
-35.79
-39.97
-48.57
-59.00
-67.36
-69.98
-64.81
-52.10
-34.07
-13.88
5.56
22.48
36.61
48.82
60.31
71.59
81.61
87.68
86.21
74.05
49.92
15.28
-25.85
-68.07
-106.15
-136.44
-157.24
-168.41
-170.47
-163.89
-148.91
-126.09
-96.74
-63.25
-28.69
4.09
33.15
57.88
78.62
95.89
109.59
118.67
121.43
116.28
102.63
81.38
54.98
26.85
0.66
-20.46
-34.41
-40.09
-37.32
-26.42
-8.11
16.25
44.32
72.68
97.28
114.64
122.81
121.92
113.69
100.20
82.72
61.27
35.35
5.33
-26.45
-55.72
-77.62
-88.54
-87.42
-75.88
-57.17
-34.79
-11.50
10.67
29.92
44.19
51.34
50.03
40.58
25.54
8.81
-6.02
-17.58
-27.55
-39.98
-59.30
-87.93
-124.42
-163.29
-196.49
-215.98
-216.12
-195.19
-155.64
-103.59
-47.51
3.69
43.00
67.40
78.79
83.05
87.23
96.10
109.78
123.68
131.21
127.87
114.55
98.06
88.20
92.69
112.81
141.97
168.51
180.81
172.56
145.09
105.98
64.69
28.07
-1.96
-27.35
-50.77
-72.80
-91.21
-102.86
-106.36
-103.84
-100.25
-100.69
-107.31
-117.78
-126.04
-125.17
-110.96
-84.11
-50.17
-17.21
7.51
20.21
21.36
14.34
3.19
-9.26
-21.81
-33.97
-44.71
-52.05
-54.01
-50.12
-42.37
-34.48
-29.76
-28.74
-28.42
-23.54
-9.64
14.45
45.91
79.52
110.45
136.05
155.98
170.71
179.84
181.81
175.07
159.87
139.18
118.02
101.55
93.22
93.86
102.04
115.14
130.24
144.47
154.94
158.91
154.21
139.84
116.25
85.06
48.47
8.66
-32.41
-72.85
-110.68
-143.70
-169.88
-187.79
-196.99
-198.03
-192.29
-181.50
-167.47
-151.86
-136.17
-121.73
-109.66
-100.74
-95.26
-92.94
-92.90
-93.86
-94.42
-93.47
-90.59
-86.05
-80.63
-75.16
-70.18
-65.68
-61.27
-56.45
-51.01
-45.16
-39.52
-34.89
-31.94
-31.04
-32.26
-35.59
-40.98
-48.39
-57.59
-67.83
-77.75
-85.60
-89.70
-88.84
-82.45
-70.46
-52.99
-30.44
-3.85
24.63
51.68
73.49
87.14
91.73
88.86
81.77
73.77
66.80
60.91
54.87
47.26
37.35
25.32
11.81
-2.46
-16.85
-30.67
-42.97
-52.81
-59.91
-65.22
-71.04
-80.36
-95.94
-119.35
-150.50
-187.75
-228.23
-268.19
-303.43
-329.80
-344.08
-344.81
-332.91
-311.45
-284.73
-256.90
-230.98
-208.50
-189.80
-174.48
-161.65
-149.96
-137.54
-122.35
-102.82
-78.44
-49.86
-18.43
14.95
50.59
89.91
134.18
182.78
232.09
275.92
307.32
321.11
315.67
293.03
257.52
213.66
164.42
110.54
51.42
-13.43
-82.65
-152.27
-216.07
-267.06
-299.60
-311.21
-303.28
-280.35
-248.34
-212.29
-175.08
-137.61
-99.91
-62.35
-26.30
6.60
35.62
61.84
88.12
118.31
156.04
203.55
260.63
323.86
386.62
440.14
475.67
487.21
473.64
439.00
390.70
336.62
282.44
230.59
180.99
132.78
85.73
40.41
-2.51
-43.08
-82.31
-121.37
-160.55
-198.51
-232.44
-258.64
-273.65
-275.19
-262.71
-237.60
-202.89
-162.61
-120.97
-81.51
-46.51
-16.89
7.51
27.37
43.43
56.19
65.97
73.17
78.45
82.72
86.74
90.65
93.84
95.23
94.10
90.59
85.84
81.04
76.37
70.36
60.61
45.40
25.33
3.61
-15.15
-27.29
-32.03
-31.88
-31.38
-34.89
-44.77
-60.71
-80.27
-100.11
-117.07
-128.78
-133.79
-131.53
-122.07
-106.09
-84.67
-59.12
-31.07
-2.33
25.16
49.56
69.41
83.73
92.12
94.76
92.50
86.82
79.68
73.02
67.94
64.18
60.10
53.35
42.10
26.18
7.58
-9.79
-21.23
-22.66
-11.86
10.90
43.06
80.53
118.77
153.56
181.58
200.58
209.34
207.92
197.75
181.70
163.63
147.54
136.54
131.84
132.64
136.42
139.94
140.28
135.63
125.58
110.99
93.49
74.82
56.32
38.74
22.37
7.47
-5.57
-16.25
-24.19
-29.54
-33.14
-36.47
-41.34
-49.59
-62.84
-82.24
-108.19
-139.96
-175.47
-211.42
-243.95
-269.73
-286.97
-295.88
-298.35
-296.91
-293.56
-288.94
-282.34
-272.46
-258.32
-240.02
-218.76
-196.28
-174.15
-153.08
-132.86
-112.69
-91.67
-69.30
-45.69
-21.39
2.73
25.69
46.33
63.27
75.13
80.90
80.40
74.54
65.06
54.02
43.21
33.84
26.44
21.07
17.41
14.74
12.07
8.32
2.83
-4.16
-11.39
-17.02
-19.51
-18.52
-15.15
-11.52
-9.77
-11.02
-14.96
-20.01
-24.18
-25.92
-24.76
-21.25
-16.58
-11.91
-7.96
-4.92
-2.60
-0.71
1.16
3.52
7.22
13.28
22.38
34.37
47.94
60.80
70.46
75.25
75.08
71.56
67.47
65.59
67.60
73.32
80.70
86.65
88.23
84.01
74.68
62.78
51.62
43.85
40.58
41.13
43.83
46.97
49.53
51.31
52.51
53.26
53.39
52.61
50.91
48.73
46.85
45.92
46.04
46.65
46.70
45.21
41.67
36.41
30.42
25.01
21.24
19.52
19.47
20.12
20.32
19.22
16.51
12.50
7.84
3.30
-0.51
-3.25
-4.91
-5.76
-6.30
-7.12
-8.71
-11.27
-14.49
-17.59
-19.50
-19.20
-16.15
-10.38
-2.55
6.37
15.32
23.44
30.08
34.92
37.89
39.13
38.94
37.72
35.82
33.58
31.24
28.98
26.93
25.17
23.70
22.49
21.51
20.74
20.23
19.96
19.83
19.58
18.85
17.33
14.91
11.76
8.23
4.73
1.46
-1.67
-4.97
-8.90
-13.78
-19.63
-26.11
-32.49
-37.87
-41.37
-42.33
-40.50
-36.03
-29.44
-21.35
-12.40
-3.02
6.44
15.67
24.20
31.40
36.56
39.21
39.32
37.46
34.66
31.98
30.14
29.21
28.64
27.61
25.49
22.28
18.74
16.08
15.45
17.36
21.24
25.60
28.56
28.63
25.50
20.27
15.19
12.71
14.64
21.30
31.21
41.19
46.90
43.95
29.36
3.07
-31.37
-67.43
-97.66
-116.25
-121.00
-113.67
-98.38
-79.20
-58.10
-34.70
-7.55
23.77
57.31
88.74
112.85
125.31
124.03
109.47
84.53
53.87
23.01
-3.06
-21.62
-33.86
-45.04
-62.76
-93.27
-137.70
-190.22
-239.61
-273.52
-283.55
-268.37
-233.77
-189.65
-145.94
-109.40
-82.33
-63.32
-48.93
-35.39
-19.71
-0.15
23.85
51.99
83.45
117.11
151.58
185.10
215.32
239.60
255.62
262.32
260.67
253.69
245.80
241.44
243.36
251.38
262.14
270.06
269.44
256.73
232.04
199.19
164.17
132.50
107.12
87.42
69.93
50.26
24.99
-7.48
-47.31
-94.09
-147.11
-204.41
-261.55
-311.45
-346.46
-361.94
-359.32
-346.39
-333.99
-330.69
-338.51
-352.28
-362.85
-362.32
-347.77
-321.69
-289.24
-254.42
-217.97
-178.06
-133.08
-84.19
-36.00
4.89
33.08
46.86
49.14
46.21
44.99
50.25
63.11
81.24
100.64
117.75
130.96
140.72
148.62
155.94
162.79
167.98
169.87
167.35
160.61
151.18
141.25
132.71
126.39
121.80
117.57
112.22
104.94
95.96
86.28
77.15
69.37
63.03
57.63
52.40
46.83
40.82
34.64
28.74
23.46
18.88
14.90
11.26
7.65
3.88
-0.14
-4.26
-8.15
-11.30
-13.21
-13.50
-12.07
-9.14
-5.17
-0.69
3.73
7.65
10.77
12.97
14.31
14.95
15.10
14.92
14.54
13.95
13.17
12.24
11.26
10.38
9.74
9.37
9.26
9.34
9.56
9.89
10.32
10.81
11.22
11.41
11.27
10.78
10.04
9.18
8.29
7.29
5.99
4.14
1.59
-1.64
-5.31
-9.18
-13.06
-16.94
-20.90
-25.01
-29.17
-33.19
-36.72
-39.47
-41.24
-41.93
-41.47
-39.84
-37.03
-33.09
-28.26
-22.84
-17.22
-11.76
-6.75
-2.40
1.06
3.47
4.76
5.03
4.64
4.10
3.92
4.45
5.76
7.65
9.83
12.04
14.14
16.10
17.94
19.61
20.96
21.87
22.24
22.12
21.64
20.92
20.01
18.81
17.21
15.07
12.39
9.25
5.84
2.37
-0.96
-3.99
-6.61
-8.75
-10.46
-11.89
-13.33
-15.04
-17.17
-19.60
-21.93
-23.57
-24.00
-22.92
-20.39
-16.76
-12.54
-8.22
-4.20
-0.68
2.25
4.61
6.50
7.97
9.08
9.78
10.02
9.77
9.12
8.26
7.46
6.88
6.59
6.52
6.52
6.50
6.48
6.52
6.70
7.02
7.34
7.51
7.31
6.58
5.24
3.29
0.84
-1.87
-4.56
-6.98
-8.97
-10.57
-11.94
-13.31
-14.84
-16.53
-18.25
-19.77
-20.83
-21.19
-20.69
-19.26
-16.95
-13.99
-10.76
-7.70
-5.19
-3.38
-2.19
-1.41
-0.87
-0.52
-0.48
-0.94
-1.97
-3.51
-5.24
-6.79
-7.81
-8.10
-7.70
-6.81
-5.74
-4.73
-3.85
-2.98
-1.78
0.11
2.93
6.65
10.91
15.07
18.41
20.33
20.56
19.32
17.24
15.15
13.79
13.45
13.73
13.54
11.28
5.28
-5.75
-22.20
-43.11
-65.95
-86.86
-101.41
-105.87
-98.51
-80.37
-55.11
-27.72
-2.97
16.12
28.76
35.97
39.53
40.98
41.18
40.41
38.86
37.00
35.42
34.48
33.98
33.20
31.43
28.72
26.16
25.63
28.77
35.92
45.65
55.12
61.21
61.66
55.73
44.00
27.65
7.79
-14.71
-38.81
-62.85
-84.30
-100.28
-108.37
-107.38
-97.81
-81.55
-61.34
-39.97
-19.84
-2.63
10.62
19.41
23.61
23.52
19.78
13.39
5.54
-2.66
-10.34
-17.06
-22.72
-27.39
-31.02
-33.27
-33.46
-30.82
-24.90
-15.90
-4.86
6.51
16.36
23.30
26.86
27.63
26.90
25.96
25.56
25.60
25.28
23.75
20.68
16.66
13.05
11.41
12.82
17.39
24.14
31.20
36.30
37.07
31.53
18.53
-1.60
-26.65
-52.88
-76.09
-93.25
-103.54
-108.43
-110.41
-111.29
-110.95
-107.50
-98.54
-83.04
-62.36
-40.03
-20.45
-7.14
-1.39
-1.92
-5.39
-7.47
-3.97
8.16
30.01
60.36
95.80
131.57
162.97
186.63
201.44
208.25
208.79
204.40
195.29
180.77
160.27
134.21
104.12
71.92
38.68
4.16
-32.64
-72.11
-112.85
-151.66
-184.72
-209.28
-224.92
-233.53
-238.20
-241.70
-245.35
-248.64
-249.69
-246.24
-236.52
-220.02
-197.46
-170.42
-140.52
-108.57
-74.37
-37.18
3.24
45.74
87.30
123.44
149.32
161.00
156.72
137.49
107.17
71.71
37.81
11.20
-4.88
-10.40
-8.04
-1.79
4.64
9.01
10.53
9.29
5.46
-1.00
-9.99
-20.82
-32.04
-41.80
-48.64
-52.30
-53.87
-55.24
-58.13
-63.13
-69.33
-74.72
-77.04
-74.70
-67.32
-55.65
-41.03
-24.73
-7.59
10.02
27.87
45.49
62.03
76.43
87.74
95.48
99.80
101.32
100.93
99.49
97.74
96.21
95.30
95.25
96.12
97.71
99.54
100.98
101.45
100.62
98.56
95.67
92.41
88.97
85.05
79.94
72.82
63.30
51.78
39.41
27.69
17.72
9.75
3.02
-3.79
-11.91
-22.11
-34.56
-49.01
-65.06
-82.17
-99.34
-114.72
-125.58
-128.56
-120.52
-99.53
-65.46
-20.24
32.74
89.35
145.25
196.13
237.84
266.61
279.78
276.64
259.00
230.82
197.14
162.20
128.00
93.89
57.53
16.67
-28.94
-76.44
-120.16
-153.41
-171.17
-172.23
-159.95
-141.03
-123.01
-111.63
-109.49
-116.26
-129.98
-148.40
-169.47
-190.93
-209.62
-221.27
-221.46
-207.14
-178.13
-137.68
-91.89
-48.13
-13.09
8.87
16.83
13.39
3.70
-6.34
-11.78
-9.76
0.41
17.81
40.59
66.51
93.17
118.09
139.09
154.80
165.19
171.60
176.17
181.05
187.60
196.02
205.31
213.54
218.08
215.88
203.97
180.32
144.90
100.44
52.23
6.91
-29.61
-54.05
-66.70
-71.15
-72.71
-76.64
-86.58
-103.76
-127.02
-153.43
-179.15
-200.13
-212.83
-215.07
-206.71
-189.87
-168.46
-147.07
-129.61
-118.25
-113.11
-112.62
-114.38
-115.91
-115.08
-110.29
-100.59
-85.72
-66.30
-43.97
-21.25
-1.09
13.80
21.54
21.41
13.67
-0.39
-18.56
-37.73
-54.13
-63.93
-64.17
-53.98
-35.01
-10.99
13.60
35.18
52.17
65.05
75.29
84.07
91.48
96.52
97.99
95.38
89.20
80.80
71.74
63.35
56.55
52.04
50.46
52.38
58.00
66.74
76.99
86.38
92.28
92.73
87.14
76.58
63.45
50.58
40.25
33.54
30.27
29.47
30.08
31.51
33.63
36.44
39.65
42.46
43.72
42.35
37.76
30.02
19.81
8.17
-3.75
-14.81
-23.98
-30.42
-33.63
-33.53
-30.59
-25.64
-19.74
-13.90
-8.74
-4.41
-0.45
3.91
9.44
16.33
23.93
30.86
35.53
36.84
34.72
30.09
24.45
19.05
14.49
10.60
6.77
2.45
-2.52
-7.91
-13.27
-18.11
-21.89
-23.94
-23.38
-19.37
-11.53
-0.46
12.06
23.32
30.44
31.37
25.58
14.26
-0.13
-14.75
-27.23
-36.19
-41.30
-42.93
-41.73
-38.26
-32.95
-26.08
-17.89
-8.67
1.23
11.39
21.30
30.40
38.18
44.33
48.84
52.11
54.84
57.84
61.65
66.38
71.62
76.57
80.38
82.52
83.09
82.96
83.55
86.38
92.33
100.91
109.89
115.52
113.44
100.09
74.08
36.99
-6.76
-50.87
-88.76
-115.11
-127.12
-124.91
-111.27
-90.67
-68.08
-47.70
-32.22
-22.58
-18.26
-17.98
-20.37
-24.31
-29.02
-33.86
-38.19
-41.26
-42.54
-41.89
-39.83
-37.39
-35.70
-35.55
-37.02
-39.45
-41.84
-43.29
-43.44
-42.55
-41.17
-39.77
-38.47
-36.98
-34.84
-31.69
-27.55
-22.79
-17.90
-13.32
-9.11
-5.00
-0.46
5.16
12.43
21.68
32.92
45.80
59.65
73.65
86.98
98.92
109.02
117.12
123.43
128.65
134.15
141.91
153.91
171.20
192.86
215.58
234.31
243.76
240.26
222.97
194.12
158.20
120.62
86.30
58.58
38.73
25.94
17.73
10.68
1.24
-13.60
-35.95
-66.39
-103.20
-141.75
-175.15
-196.07
-199.58
-185.36
-158.11
-125.69
-95.89
-73.65
-59.94
-52.80
-49.38
-47.43
-45.71
-43.34
-39.17
-31.84
-20.68
-6.57
7.91
19.42
25.30
24.54
18.33
9.61
2.02
-1.39
1.02
9.32
22.42
38.57
55.57
70.97
82.00
85.98
80.89
65.96
41.76
9.66
-28.90
-72.69
-120.18
-168.45
-212.34
-244.93
-259.20
-250.80
-220.32
-173.91
-121.76
-74.79
-41.00
-23.07
-18.08
-19.57
-20.68
-17.02
-7.93
4.22
16.07
25.35
31.76
36.64
41.40
46.32
50.17
51.09
47.90
41.06
32.54
24.70
18.80
14.25
8.87
0.11
-13.60
-31.97
-53.25
-75.10
-95.70
-114.02
-129.47
-141.32
-148.42
-149.74
-145.20
-136.09
-124.75
-113.57
-103.97
-96.09
-89.39
-83.66
-79.69
-79.16
-83.72
-94.07
-109.49
-127.94
-146.67
-162.67
-173.04
-175.21
-167.33
-148.57
-119.47
-81.95
-39.00
5.77
48.63
86.25
116.23
137.46
150.41
156.79
158.92
158.77
157.30
154.31
148.94
140.43
128.64
114.22
98.39
82.46
67.56
54.54
43.87
35.72
29.96
26.18
23.80
22.10
20.40
17.99
14.28
8.79
1.35
-7.77
-17.80
-27.60
-36.03
-42.33
-46.39
-48.60
-49.51
-49.42
-48.20
-45.41
-40.56
-33.41
-24.03
-12.71
0.08
13.67
27.08
39.02
48.32
54.42
57.82
59.92
62.36
65.79
69.18
69.89
64.75
51.66
31.03
6.02
-18.41
-37.33
-47.62
-48.96
-43.62
-35.18
-27.08
-21.55
-19.11
-18.83
-18.95
-17.47
-12.63
-3.32
10.66
28.36
47.75
66.23
81.18
90.69
93.90
90.94
82.63
70.14
54.83
38.25
22.11
8.05
-2.81
-10.29
-15.26
-19.21
-23.37
-27.86
-31.36
-31.40
-25.35
-11.48
10.39
38.65
70.41
102.12
130.21
151.50
163.44
164.31
153.65
132.59
104.05
72.39
42.43
18.23
2.05
-6.03
-7.61
-4.80
0.91
9.12
20.26
34.56
51.04
67.04
78.71
82.06
74.20
54.10
22.80
-17.02
-61.67
-107.19
-149.84
-186.56
-215.08
-233.91
-242.22
-239.72
-226.82
-204.87
-176.48
-145.42
-115.98
-91.80
-74.67
-64.07
-57.57
-52.12
-45.41
-36.62
-26.27
-15.48
-5.08
4.76
14.35
23.92
33.30
41.85
48.84
53.86
57.09
59.20
61.14
63.69
67.18
71.32
74.99
76.43
73.48
64.24
47.82
24.95
-1.96
-29.38
-53.74
-72.47
-84.62
-90.75
-92.31
-90.79
-87.26
-82.34
-76.49
-70.26
-64.20
-58.51
-52.70
-45.56
-35.59
-21.64
-3.50
18.00
41.23
64.23
85.13
102.26
114.16
119.49
117.24
107.08
89.63
66.55
40.29
13.57
-11.17
-32.09
-48.05
-58.51
-63.54
-63.64
-59.84
-53.43
-45.85
-38.21
-31.11
-24.56
-18.12
-11.18
-3.19
6.16
16.91
28.77
41.12
52.94
62.99
70.12
73.67
73.59
70.33
64.31
55.52
43.43
27.44
7.63
-14.72
-37.14
-56.63
-70.64
-77.90
-78.55
-73.73
-64.78
-52.59
-37.50
-19.65
0.52
21.89
42.70
60.98
75.02
83.79
86.93
84.58
77.08
64.89
48.68
29.43
8.53
-12.45
-31.97
-48.80
-62.02
-71.10
-75.80
-76.30
-73.16
-67.28
-59.66
-51.04
-41.70
-31.45
-19.95
-7.17
6.14
18.48
27.99
33.12
33.35
29.38
22.87
15.75
9.40
4.30
0.03
-4.12
-8.68
-13.57
-18.28
-22.19
-24.91
-26.38
-26.68
-25.82
-23.51
-19.26
-12.41
-2.42
10.95
27.52
46.54
66.72
86.27
103.14
115.10
120.03
116.11
102.21
78.35
46.28
9.65
-26.41
-56.34
-75.70
-82.45
-77.47
-63.86
-45.53
-25.56
-5.25
15.89
39.12
65.23
93.65
122.28
148.03
167.70
178.74
179.83
171.21
154.82
134.15
113.43
96.42
84.93
77.79
70.96
58.82
36.40
1.62
-43.37
-92.38
-136.89
-168.83
-183.05
-178.78
-159.55
-131.68
-102.27
-77.14
-59.85
-51.48
-51.29
-57.48
-67.78
-79.78
-91.04
-99.38
-103.31
-102.38
-97.23
-89.34
-80.21
-70.50
-59.61
-45.92
-27.83
-5.03
20.70
45.81
66.33
79.50
84.83
83.79
78.64
71.02
61.31
49.15
34.58
18.84
4.37
-6.19
-11.30
-11.15
-7.48
-2.56
1.86
5.11
7.48
9.62
11.94
14.35
16.44
17.90
18.81
19.76
21.48
24.38
28.08
31.27
31.90
27.91
17.93
1.87
-18.79
-41.37
-62.58
-79.42
-89.91
-93.39
-90.46
-82.51
-71.11
-57.53
-42.60
-26.82
-10.70
5.03
19.41
31.61
41.27
48.82
55.49
62.82
72.21
84.35
99.08
115.48
132.27
148.16
161.95
172.50
178.45
178.18
170.14
153.53
128.89
98.20
64.39
30.37
-1.82
-31.26
-57.74
-81.14
-100.91
-116.19
-126.32
-131.39
-132.38
-130.78
-127.98
-124.77
-121.34
-117.52
-113.14
-108.16
-102.57
-96.27
-88.98
-80.49
-70.84
-60.59
-50.76
-42.44
-36.46
-32.85
-30.83
-28.99
-25.73
-19.81
-10.64
1.57
15.99
31.34
46.22
59.28
69.50
76.40
80.16
81.57
81.79
81.99
82.96
84.96
87.64
90.21
91.68
91.11
87.86
81.74
73.16
62.94
52.14
41.61
31.80
22.66
13.84
5.08
-3.52
-11.31
-17.14
-19.66
-17.76
-11.06
-0.45
11.64
21.48
25.06
19.41
4.13
-18.11
-42.13
-61.86
-72.34
-71.12
-58.53
-36.96
-9.52
21.03
52.72
84.14
113.92
140.32
161.24
174.53
178.38
171.54
153.53
124.79
87.05
43.60
-0.74
-40.32
-70.06
-87.05
-91.63
-87.26
-79.07
-71.86
-68.33
-68.52
-70.55
-71.95
-70.81
-66.07
-57.24
-44.00
-26.36
-5.36
16.30
34.30
43.87
41.48
26.59
2.06
-26.64
-53.37
-73.36
-84.41
-87.05
-83.67
-77.22
-70.19
-64.11
-59.48
-56.11
-53.49
-51.09
-48.55
-45.70
-42.40
-38.48
-33.53
-26.93
-18.04
-6.45
7.74
23.76
40.22
55.37
67.52
75.57
79.23
79.04
75.86
70.42
62.83
52.71
39.73
24.19
7.40
-8.59
-21.66
-30.45
-34.66
-34.87
-31.98
-26.73
-19.64
-11.24
-2.47
5.31
10.67
12.77
11.86
9.27
6.93
6.64
9.37
14.90
21.98
28.68
33.07
33.79
30.40
23.49
14.46
5.06
-3.20
-9.45
-13.69
-16.57
-19.01
-21.66
-24.53
-26.93
-27.61
-25.12
-18.35
-7.00
8.21
25.48
42.29
56.01
64.32
65.75
59.80
46.87
28.03
4.91
-20.47
-45.83
-69.16
-89.27
-106.38
-122.01
-138.23
-156.50
-176.68
-196.85
-214.08
-225.69
-230.35
-228.58
-222.38
-214.17
-205.67
-197.17
-187.58
-174.85
-156.87
-132.24
-100.84
-64.05
-24.39
15.03
51.31
82.38
107.40
126.79
142.03
155.11
167.78
180.48
191.59
197.54
193.85
176.89
145.50
101.76
50.56
-1.77
-49.08
-86.59
-111.46
-122.79
-121.37
-109.33
-89.76
-66.15
-41.79
-19.11
0.72
17.85
33.35
48.77
65.51
84.29
104.66
124.83
141.91
152.60
154.06
144.73
124.62
95.23
59.17
19.67
-19.69
-55.36
-84.30
-104.58
-115.68
-118.57
-115.10
-107.15
-95.86
-81.25
-62.64
-39.37
-11.42
20.21
53.56
86.01
114.56
136.02
147.25
145.67
129.93
100.78
61.43
17.19
-25.74
-61.95
-88.22
-104.06
-111.07
-111.52
-107.01
-97.76
-82.98
-61.87
-34.72
-3.23
29.67
60.47
85.75
102.30
107.27
98.42
74.85
37.89
-8.44
-57.84
-103.28
-138.73
-160.71
-168.48
-163.28
-146.98
-121.31
-87.77
-48.32
-5.93
35.40
71.49
99.14
116.96
125.40
126.09
120.87
111.32
98.63
84.02
68.95
55.18
44.46
38.03
36.43
39.38
45.92
54.36
62.45
67.56
67.19
59.71
44.85
23.84
-1.03
-27.14
-52.25
-74.82
-93.89
-108.73
-118.41
-121.54
-116.35
-101.09
-74.75
-37.91
6.58
53.41
95.40
124.98
135.97
125.33
93.99
46.76
-8.70
-63.49
-109.30
-139.92
-152.12
-145.89
-123.68
-89.49
-47.89
-3.52
39.10
75.50
101.56
114.29
112.75
98.79
76.83
52.73
32.02
18.35
12.65
13.37
17.47
21.73
23.75
22.41
17.69
10.21
0.90
-9.25
-19.08
-27.25
-32.29
-32.90
-28.47
-19.38
-7.29
5.18
15.10
20.11
19.16
12.86
3.06
-7.92
-18.18
-26.74
-33.55
-39.06
-43.65
-47.34
-49.79
-50.55
-49.41
-46.46
-42.11
-36.89
-31.24
-25.34
-19.02
-11.77
-2.98
7.82
20.69
35.09
49.94
63.90
75.65
84.19
88.94
89.72
86.62
80.02
70.55
59.22
47.34
36.35
27.46
21.34
17.89
16.31
15.47
14.30
12.22
9.11
5.18
0.60
-4.61
-10.54
-17.06
-23.71
-29.83
-34.87
-38.84
-42.41
-46.55
-51.89
-58.16
-63.98
-67.33
-66.33
-60.09
-49.04
-34.76
-19.39
-4.89
7.35
16.83
23.87
29.47
35.12
42.36
52.22
64.63
78.03
89.55
95.84
94.07
83.05
63.45
37.63
8.73
-20.18
-46.66
-69.01
-86.14
-97.39
-102.42
-101.39
-95.07
-85.00
-73.33
-62.44
-54.40
-50.34
-49.98
-51.61
-52.55
-50.12
-42.64
-30.05
-13.99
2.91
17.96
29.31
36.42
39.96
41.37
42.15
43.37
45.44
48.29
51.59
55.12
58.82
62.78
66.96
71.01
74.26
75.83
75.01
71.56
65.88
58.87
51.59
44.87
39.01
33.86
29.00
24.16
19.37
15.03
11.57
9.15
7.44
5.64
2.67
-2.52
-10.59
-21.70
-35.35
-50.42
-65.46
-78.98
-89.89
-97.73
-102.74
-105.59
-106.99
-107.26
-106.25
-103.48
-98.48
-91.15
-81.84
-71.24
-60.06
-48.82
-37.75
-26.94
-16.53
-6.84
1.68
8.60
13.76
17.35
19.77
21.47
22.71
23.47
23.56
22.84
21.35
19.40
17.53
16.24
15.92
16.59
18.01
19.72
21.24
22.22
22.43
21.89
20.69
19.05
17.20
15.38
13.75
12.35
11.02
9.48
7.40
4.57
1.06
-2.75
-6.19
-8.54
-9.18
-7.81
-4.47
0.46
6.42
12.78
18.92
24.29
28.51
31.36
32.82
33.04
32.24
30.67
28.52
25.92
23.02
20.05
17.30
15.08
13.65
13.08
13.20
13.70
14.19
14.32
13.94
13.12
12.08
11.16
10.59
10.44
10.59
10.64
10.03
8.11
4.33
-1.51
-9.06
-17.41
-25.30
-31.45
-35.01
-35.77
-34.12
-30.85
-26.71
-22.23
-17.64
-13.09
-8.77
-4.95
-1.95
0.06
1.14
1.53
1.56
1.49
1.39
1.20
0.70
-0.24
-1.58
-3.03
-4.11
-4.33
-3.41
-1.45
1.05
3.35
4.74
4.85
3.69
1.61
-0.96
-3.69
-6.32
-8.74
-10.84
-12.60
-14.08
-15.52
-17.28
-19.69
-22.97
-27.04
-31.55
-35.91
-39.38
-41.25
-41.00
-38.42
-33.65
-27.17
-19.64
-11.70
-3.82
3.82
11.20
18.35
25.19
31.54
37.11
41.68
45.14
47.55
49.08
49.94
50.36
50.50
50.49
50.44
50.42
50.46
50.53
50.55
50.39
49.93
49.11
47.89
46.29
44.33
41.96
39.11
35.72
31.85
27.73
23.71
20.17
17.33
15.18
13.49
11.93
10.19
8.11
5.72
3.21
0.93
-0.66
-1.11
-0.03
2.79
7.19
12.76
18.86
24.93
30.61
35.83
40.81
45.79
50.92
56.07
60.88
64.86
67.60
68.96
69.19
68.89
68.89
70.04
72.99
77.90
84.16
90.35
94.38
94.00
87.41
73.81
53.59
28.19
-0.27
-29.45
-57.12
-81.25
-100.23
-112.96
-119.25
-119.82
-116.28
-110.62
-104.51
-98.73
-93.02
-86.39
-77.80
-66.92
-54.52
-42.40
-32.72
-27.16
-26.24
-28.94
-32.89
-34.91
-31.76
-20.91
-1.39
25.64
56.49
85.31
105.49
111.69
101.95
78.79
48.50
18.79
-4.14
-17.81
-23.74
-25.87
-28.07
-32.23
-37.77
-42.64
-45.02
-44.55
-42.40
-40.39
-39.77
-40.49
-41.28
-40.36
-36.45
-29.29
-19.65
-8.74
2.50
13.93
26.22
40.42
57.17
76.00
94.96
110.84
120.06
119.64
108.17
86.25
56.40
22.39
-11.59
-41.81
-65.63
-81.76
-90.30
-92.52
-90.44
-86.46
-82.77
-80.99
-81.80
-84.86
-88.87
-91.99
-92.29
-88.26
-79.38
-66.21
-50.42
-34.30
-20.29
-10.38
-5.73
-6.52
-11.95
-20.46
-30.07
-38.79
-45.03
-48.02
-48.03
-46.26
-44.50
-44.36
-46.53
-50.36
-53.83
-54.19
-48.88
-36.58
-17.76
5.33
29.30
50.64
66.68
76.29
79.99
79.62
77.50
75.62
74.84
74.56
72.89
67.35
55.88
37.72
13.97
-12.54
-37.82
-57.76
-69.08
-69.99
-60.46
-41.97
-17.04
11.38
40.36
67.28
89.94
106.46
115.32
115.41
106.25
88.15
62.40
31.23
-2.28
-34.75
-62.94
-84.47
-98.16
-104.13
-103.40
-97.19
-86.36
-70.99
-50.61
-24.66
6.75
42.21
78.87
112.60
138.78
153.08
152.46
135.75
104.07
60.61
10.24
-41.28
-88.22
-125.81
-151.00
-163.01
-163.27
-154.83
-141.42
-126.36
-111.83
-98.74
-87.07
-76.55
-67.05
-58.74
-51.82
-46.24
-41.56
-37.04
-32.00
-25.99
-18.87
-10.60
-1.08
9.96
22.69
36.98
52.15
67.11
80.69
92.09
101.14
108.28
114.24
119.67
124.88
129.78
133.96
136.94
138.33
138.00
136.08
132.90
128.87
124.20
118.70
111.65
101.94
88.37
70.09
47.00
19.88
-9.71
-39.79
-68.34
-93.67
-114.54
-130.21
-140.41
-145.35
-145.68
-142.48
-137.17
-131.23
-125.90
-121.85
-119.03
-116.67
-113.60
-108.65
-101.14
-91.19
-79.61
-67.54
-55.81
-44.46
-32.62
-18.83
-1.73
19.30
43.85
70.57
97.42
121.94
141.35
152.80
153.82
143.12
121.28
91.10
57.11
24.46
-2.51
-21.35
-31.75
-34.97
-32.99
-27.82
-21.31
-15.43
-12.33
-14.01
-21.38
-33.54
-47.58
-59.51
-65.98
-65.78
-60.43
-53.29
-47.86
-46.15
-48.08
-52.11
-56.47
-60.14
-63.01
-65.31
-66.91
-67.02
-64.55
-58.91
-50.56
-41.02
-32.31
-26.08
-22.92
-22.17
-22.30
-21.58
-18.80
-13.64
-6.75
0.65
7.29
12.32
15.49
17.12
17.86
18.39
19.32
21.12
24.13
28.55
34.35
41.10
48.05
54.23
58.78
61.21
61.59
60.47
58.62
56.72
55.18
54.21
53.89
54.34
55.55
57.15
58.09
56.73
51.22
40.17
23.31
1.63
-22.84
-47.72
-70.95
-91.06
-107.15
-118.51
-124.33
-123.72
-116.08
-101.57
-81.39
-57.72
-33.34
-11.03
6.98
19.30
25.48
25.96
21.89
14.91
7.00
0.08
-4.28
-5.21
-2.60
3.00
10.62
19.20
27.76
35.52
41.88
46.53
49.40
50.75
51.05
50.86
50.65
50.76
51.33
52.35
53.75
55.33
56.73
57.39
56.65
54.03
49.60
44.17
39.13
35.79
34.74
35.22
35.38
32.92
26.16
14.72
-0.32
-17.01
-33.31
-47.70
-59.35
-67.97
-73.61
-76.53
-77.35
-76.94
-76.21
-75.64
-74.79
-72.30
-66.26
-55.13
-38.61
-18.15
3.18
21.51
33.33
36.62
31.40
19.59
4.23
-11.53
-25.21
-35.47
-41.90
-44.79
-44.76
-42.56
-39.01
-34.91
-30.94
-27.48
-24.59
-21.99
-19.28
-16.10
-12.28
-7.96
-3.51
0.55
3.72
5.69
6.50
6.55
6.43
6.68
7.59
9.06
10.62
11.72
11.90
11.05
9.44
7.61
6.21
5.82
6.84
9.36
13.23
18.10
23.47
28.93
34.17
39.07
43.59
47.70
51.27
54.04
55.74
56.12
55.16
53.04
50.10
46.76
43.37
40.16
37.23
34.57
32.15
30.07
28.56
27.98
28.54
30.25
32.71
35.24
37.16
38.08
38.13
37.89
38.06
39.10
40.96
43.09
44.76
45.43
45.01
43.90
42.82
42.47
43.36
45.65
49.27
53.96
59.23
64.26
67.88
68.89
66.47
60.84
53.40
46.57
43.11
45.28
54.07
68.96
87.98
108.29
126.85
141.22
150.15
153.79
153.40
150.59
146.43
140.83
132.61
120.30
102.95
80.68
54.50
25.69
-4.34
-33.65
-58.95
-75.36
-77.55
-62.01
-29.57
13.87
58.99
96.52
120.68
130.67
129.46
120.84
106.93
87.62
62.32
32.55
3.41
-17.39
-22.67
-9.37
19.51
55.64
88.64
109.96
115.51
106.22
86.19
60.00
30.71
-0.86
-35.37
-73.44
-114.30
-155.29
-192.34
-221.19
-239.14
-246.22
-245.39
-241.29
-238.05
-237.17
-236.84
-233.20
-222.75
-204.64
-181.38
-157.42
-136.76
-120.98
-109.06
-98.82
-88.93
-80.08
-74.39
-73.88
-78.81
-87.12
-95.34
-100.29
-100.66
-97.54
-93.87
-93.04
-97.44
-107.49
-121.43
-135.76
-146.00
-147.65
-137.21
-113.19
-76.75
-31.68
16.49
61.97
100.22
128.83
147.30
156.23
156.35
148.14
132.16
109.67
83.09
55.73
30.96
11.37
-1.78
-8.41
-9.12
-4.54
4.83
18.38
34.93
52.25
67.08
75.71
75.05
63.83
43.33
17.37
-8.66
-29.36
-41.05
-42.80
-36.44
-25.81
-15.29
-8.57
-7.89
-13.83
-25.67
-41.82
-60.20
-78.58
-94.75
-106.63
-112.64
-111.85
-104.31
-91.18
-74.53
-57.03
-41.29
-29.36
-22.23
-19.82
-21.19
-25.01
-29.88
-34.49
-37.54
-37.60
-33.29
-23.70
-8.95
9.54
29.23
47.28
61.38
70.36
74.14
73.32
68.63
60.81
50.83
40.34
31.75
27.78
30.47
40.29
55.82
74.21
92.22
107.29
118.13
124.94
129.12
132.98
139.31
150.79
169.09
193.93
222.76
251.14
274.26
288.58
293.17
289.73
281.57
272.03
263.28
255.98
249.81
244.31
239.35
235.12
231.64
228.43
224.53
218.83
210.64
199.95
187.41
174.02
160.63
147.66
135.02
122.25
108.83
94.51
79.39
63.95
48.82
34.55
21.46
9.57
-1.40
-11.85
-22.25
-33.03
-44.48
-56.71
-69.62
-82.89
-96.08
-108.74
-120.63
-131.82
-142.78
-154.19
-166.68
-180.57
-195.65
-211.29
-226.63
-241.04
-254.43
-267.41
-281.22
-297.37
-317.09
-340.77
-367.49
-395.03
-420.38
-440.67
-454.17
-460.94
-462.67
-462.07
-461.91
-464.19
-469.51
-476.95
-484.15
-487.77
-484.30
-470.94
-446.40
-411.30
-367.84
-319.09
-268.12
-217.36
-168.28
-121.70
-77.78
-35.98
4.97
47.17
93.50
147.16
210.68
284.56
365.81
447.48
519.68
572.41
598.97
598.41
575.79
539.88
499.62
460.97
425.87
393.24
361.19
328.80
296.58
265.66
236.59
208.67
180.35
150.11
117.34
82.58
47.22
12.52
-21.11
-54.26
-87.82
-121.92
-155.10
-184.36
-206.08
-217.63
-218.55
-210.84
-198.13
-184.28
-172.17
-163.11
-157.10
-153.41
-151.16
-149.60
-148.08
-146.02
-142.99
-138.86
-133.91
-128.78
-124.20
-120.83
-118.88
-118.22
-118.35
-118.69
-118.77
-118.43
-117.98
-118.00
-119.22
-122.07
-126.46
-131.64
-136.35
-139.24
-139.27
-136.11
-130.15
-122.40
-114.12
-106.48
-100.26
-95.81
-93.00
-91.38
-90.37
-89.52
-88.75
-88.45
-89.32
-92.09
-97.05
-103.97
-112.11
-120.69
-129.25
-137.97
-147.56
-158.90
-172.71
-189.21
-207.88
-227.45
-245.80
-260.24
-268.05
-267.17
-256.88
-238.05
-212.87
-184.11
-154.34
-125.42
-98.43
-73.92
-52.17
-33.15
-16.32
-0.47
16.38
36.62
62.36
94.49
131.78
170.55
205.13
229.50
239.30
233.37
214.24
186.83
156.44
126.73
98.86
71.91
44.23
14.67
-16.71
-48.72
-79.38
-106.30
-126.95
-139.01
-140.96
-132.73
-115.95
-93.74
-69.85
-47.67
-29.54
-16.56
-8.95
-6.59
-9.30
-16.93
-29.08
-44.85
-62.56
-79.91
-94.24
-103.06
-104.61
-98.14
-84.01
-63.27
-37.22
-6.89
27.19
64.89
106.42
152.18
202.68
257.98
316.71
375.01
426.43
463.19
478.83
471.06
443.18
403.31
361.42
325.74
300.33
284.64
275.06
267.28
258.05
245.74
230.00
211.04
189.42
166.09
142.65
121.21
103.84
92.13
86.41
85.67
87.67
89.62
88.77
83.12
71.80
55.20
34.85
12.96
-7.99
-25.78
-38.78
-46.15
-47.84
-44.37
-36.69
-26.03
-13.75
-1.34
9.82
18.73
24.95
28.73
30.80
31.96
32.72
32.96
31.84
28.07
20.50
8.80
-6.03
-21.63
-34.95
-43.38
-45.80
-43.02
-37.46
-32.10
-29.33
-30.21
-34.46
-41.00
-48.67
-56.76
-65.05
-73.65
-82.69
-92.28
-102.43
-113.21
-124.68
-136.82
-149.49
-162.37
-175.10
-187.52
-199.84
-212.59
-226.34
-241.41
-257.41
-273.25
-287.26
-297.59
-302.62
-301.30
-293.31
-279.09
-259.80
-237.14
-213.10
-189.65
-168.40
-150.28
-135.45
-123.21
-112.28
-101.06
-88.05
-72.28
-53.56
-32.47
-10.07
12.53
34.72
56.67
79.31
104.15
132.84
166.59
205.55
248.18
291.19
329.84
359.24
375.88
378.99
370.99
356.73
341.76
330.47
324.78
323.99
325.59
326.41
323.68
315.47
300.74
279.29
251.58
218.87
183.08
146.63
112.06
81.62
56.90
38.69
26.88
20.68
18.77
19.74
22.34
25.79
29.74
34.14
38.88
43.58
47.55
50.05
50.63
49.38
46.98
44.41
42.55
41.89
42.32
43.36
44.33
44.72
44.32
43.16
41.43
39.25
36.58
33.26
29.07
23.92
17.96
11.64
5.53
0.19
-3.96
-6.84
-8.57
-9.55
-10.30
-11.50
-13.84
-18.02
-24.49
-33.43
-44.59
-57.38
-70.97
-84.37
-96.53
-106.37
-112.86
-115.25
-113.21
-107.13
-98.03
-87.34
-76.48
-66.48
-57.74
-50.08
-43.00
-36.01
-28.85
-21.65
-14.71
-8.36
-2.71
2.52
7.90
14.12
21.55
29.93
38.18
44.62
47.50
45.66
38.97
28.39
15.34
1.06
-14.28
-31.76
-53.32
-80.93
-115.74
-157.59
-204.91
-254.91
-303.81
-347.32
-381.26
-402.36
-409.07
-401.80
-382.54
-354.00
-318.73
-278.76
-236.04
-192.88
-152.27
-117.22
-89.41
-68.05
-49.53
-28.22
1.82
44.56
99.98
162.89
223.22
268.17
285.94
270.05
222.40
153.59
79.79
17.35
-22.52
-36.47
-28.17
-4.83
26.79
62.71
101.75
144.04
189.37
236.35
282.09
322.57
353.25
370.46
372.88
363.00
347.27
334.35
331.57
341.55
360.91
382.00
396.86
401.12
395.53
384.61
373.38
364.51
357.47
349.95
340.11
328.26
316.62
307.94
303.51
302.00
299.81
292.68
277.66
254.35
224.99
193.31
162.80
135.26
110.22
85.43
58.19
26.74
-8.79
-46.31
-82.56
-114.31
-139.52
-157.87
-170.65
-179.93
-187.56
-194.45
-200.33
-204.28
-205.39
-203.50
-199.54
-195.41
-193.48
-196.25
-206.05
-224.59
-252.24
-287.09
-324.34
-356.94
-377.47
-380.79
-366.17
-337.77
-302.76
-268.37
-239.04
-215.30
-194.70
-173.96
-151.20
-126.68
-102.35
-80.49
-62.46
-48.13
-35.88
-23.11
-6.78
15.92
47.23
88.33
138.70
195.54
253.48
305.31
343.35
361.64
357.54
332.43
290.94
239.17
182.89
126.46
72.79
23.75
-19.26
-55.41
-85.01
-109.65
-132.10
-155.62
-183.11
-216.35
-255.04
-296.02
-333.07
-357.76
-361.79
-340.01
-292.93
-227.23
-153.72
-83.91
-26.61
13.57
35.68
40.44
28.56
0.30
-43.49
-99.72
-162.18
-222.04
-269.92
-298.31
-303.56
-286.68
-252.02
-205.14
-150.49
-90.37
-25.69
41.93
108.39
166.67
208.71
228.42
224.25
199.85
162.40
119.86
78.60
42.51
13.86
-5.52
-13.55
-8.37
10.38
40.76
78.70
119.21
157.98
192.35
221.37
245.20
264.10
277.94
286.32
288.91
285.83
277.58
264.76
247.65
226.09
199.83
169.04
134.74
98.96
64.24
33.12
7.51
-11.52
-23.61
-28.85
-27.54
-20.31
-8.18
7.22
23.73
38.80
49.79
54.32
50.61
37.78
16.01
-13.43
-48.40
-86.28
-124.60
-161.42
-195.51
-226.20
-252.88
-274.73
-290.63
-299.50
-300.90
-295.44
-284.88
-271.64
-258.03
-245.52
-234.38
-223.95
-213.35
-202.04
-190.20
-178.41
-167.14
-156.30
-145.18
-133.00
-119.46
-105.13
-91.31
-79.48
-70.72
-65.30
-62.73
-61.83
-60.72
-56.84
-47.23
-29.33
-2.34
31.55
66.87
96.06
111.80
109.40
88.34
52.57
9.36
-32.57
-65.04
-82.31
-82.26
-66.76
-41.08
-12.33
12.48
28.12
32.06
24.35
6.92
-17.25
-44.61
-71.44
-94.17
-110.15
-118.30
-119.66
-117.10
-114.61
-116.04
-123.85
-138.12
-156.21
-173.50
-184.66
-185.38
-173.76
-150.72
-119.29
-83.13
-45.09
-6.22
34.04
77.00
123.48
173.08
224.12
274.35
321.91
365.82
405.81
441.55
471.70
493.60
503.79
499.24
478.68
443.34
396.71
343.64
289.13
237.30
190.96
151.34
118.09
89.44
62.51
33.71
-0.69
-43.61
-95.84
-154.70
-213.24
-261.15
-287.61
-285.64
-255.88
-207.66
-156.24
-117.08
-99.76
-104.58
-123.51
-144.67
-157.84
-158.16
-146.55
-127.36
-105.32
-83.37
-62.50
-42.77
-24.59
-9.26
1.60
7.12
8.02
6.72
6.56
10.43
19.49
32.69
47.15
59.42
66.92
68.84
66.16
60.94
55.14
49.82
44.85
39.35
32.35
23.44
12.99
1.98
-8.49
-17.56
-24.98
-31.19
-37.06
-43.60
-51.58
-61.17
-71.87
-82.51
-91.50
-97.20
-98.34
-94.27
-85.11
-71.72
-55.52
-38.19
-21.37
-6.49
5.51
14.14
19.39
21.58
21.21
18.86
15.04
10.24
4.89
-0.58
-5.80
-10.52
-14.68
-18.46
-22.12
-25.88
-29.68
-33.09
-35.35
-35.59
-33.18
-27.99
-20.50
-11.88
-3.82
1.50
1.53
-6.44
-24.73
-54.47
-94.87
-142.83
-193.16
-239.62
-276.30
-298.95
-305.75
-297.35
-276.27
-246.02
-210.20
-171.89
-133.28
-95.52
-58.63
-21.63
16.98
58.20
101.36
143.29
178.53
200.65
204.27
186.91
149.77
97.16
35.14
-29.97
-92.38
-147.06
-189.59
-216.58
-226.35
-219.67
-199.87
-171.84
-140.44
-108.97
-78.40
-47.68
-14.97
20.89
59.27
97.65
132.34
159.95
178.60
188.49
191.48
189.95
185.69
179.14
169.60
156.06
138.33
117.66
96.81
79.44
69.13
68.54
78.82
99.45
128.33
161.98
196.03
225.98
247.90
259.02
257.95
244.33
218.29
180.27
131.53
75.10
16.45
-37.10
-78.35
-102.84
-110.83
-107.18
-99.05
-92.70
-90.89
-92.29
-93.00
-88.91
-77.53
-58.60
-33.38
-3.69
28.76
62.27
94.83
124.01
147.40
163.32
171.57
173.60
172.09
169.99
169.54
171.58
175.30
178.74
179.47
175.54
166.08
151.44
132.94
112.32
91.17
70.55
50.94
32.34
14.55
-2.56
-18.84
-33.69
-46.12
-54.86
-58.99
-58.48
-54.80
-51.12
-51.78
-61.18
-82.22
-114.97
-156.21
-200.05
-239.57
-268.77
-284.02
-284.43
-271.16
-246.30
-212.26
-171.81
-128.80
-88.32
-55.98
-35.90
-28.78
-30.92
-35.35
-34.68
-24.36
-4.61
20.12
43.65
61.28
71.88
77.65
82.06
87.22
92.30
94.02
88.73
74.77
53.47
28.50
3.85
-17.80
-35.36
-48.25
-55.17
-53.95
-43.13
-24.11
-2.30
14.14
17.57
4.37
-23.30
-58.65
-93.58
-122.02
-141.62
-153.09
-158.24
-158.24
-153.39
-144.01
-131.49
-118.42
-107.50
-99.96
-94.61
-88.28
-77.43
-60.00
-36.52
-9.94
15.63
36.59
50.98
58.90
61.98
62.54
62.80
64.30
67.70
72.74
78.40
83.16
85.49
84.27
79.22
70.95
60.73
50.10
40.41
32.57
27.05
23.96
23.16
24.12
25.89
27.12
26.32
22.33
14.66
3.57
-10.11
-25.40
-41.26
-56.57
-69.78
-78.80
-81.22
-74.97
-59.18
-34.58
-3.41
31.29
66.47
99.41
127.65
148.58
159.49
158.15
143.92
118.68
86.90
54.57
27.32
8.68
-0.72
-2.85
-0.94
2.03
4.27
5.41
5.99
6.68
7.82
9.17
10.26
10.69
10.40
9.71
9.09
8.90
9.18
9.73
10.23
10.48
10.48
10.51
10.89
11.95
13.78
16.18
18.67
20.54
21.05
19.62
16.11
10.85
4.74
-0.99
-5.05
-6.46
-4.83
-0.48
5.71
12.69
19.58
25.97
32.00
38.00
44.15
50.16
55.20
58.23
58.38
55.36
49.48
41.47
32.08
21.85
11.03
-0.27
-11.97
-24.07
-36.65
-49.66
-62.62
-74.21
-82.28
-84.45
-79.10
-66.29
-47.93
-27.16
-6.90
11.21
27.53
44.03
63.42
88.00
118.53
153.62
189.72
222.06
246.16
259.47
262.41
258.16
251.31
246.03
244.65
247.35
252.87
259.56
266.07
271.37
274.17
272.65
264.58
248.20
223.06
190.42
153.00
114.14
76.71
42.40
11.54
-16.47
-42.56
-67.33
-90.74
-112.13
-130.56
-145.19
-155.78
-162.89
-167.81
-172.23
-177.54
-184.34
-192.15
-199.69
-205.46
-208.46
-208.61
-206.73
-204.08
-201.84
-200.66
-200.51
-200.86
-200.91
-200.00
-197.77
-194.22
-189.66
-184.59
-179.53
-174.96
-171.18
-168.28
-166.13
-164.35
-162.50
-160.29
-157.74
-155.31
-153.79
-154.15
-157.29
-163.76
-173.59
-186.13
-199.97
-213.12
-223.36
-228.63
-227.55
-219.56
-204.91
-184.36
-158.89
-129.55
-97.39
-63.56
-29.24
4.54
37.15
68.56
99.29
130.07
161.63
194.40
228.65
264.66
302.66
342.56
383.41
423.22
459.33
489.27
511.56
526.01
533.16
533.47
526.69
512.09
489.37
459.56
425.33
390.21
357.32
328.09
302.03
277.35
252.09
225.11
196.36
166.50
136.28
106.07
75.69
44.66
12.55
-20.83
-55.48
-91.56
-129.47
-169.61
-211.57
-253.58
-292.29
-323.65
-344.32
-353.07
-351.40
-343.02
-332.47
-323.55
-318.34
-317.12
-318.95
-322.40
-326.13
-329.09
-330.61
-330.37
-328.60
-326.06
-323.93
-323.34
-324.87
-327.83
-330.20
-329.03
-321.33
-305.20
-280.41
-248.38
-211.43
-171.75
-130.84
-89.46
-48.17
-7.79
30.41
65.21
96.19
124.18
151.39
181.08
216.99
262.20
317.76
381.30
446.53
504.43
545.86
564.95
561.34
540.13
509.40
476.56
445.41
415.59
384.21
348.57
308.15
264.74
221.13
179.17
138.75
98.01
54.60
6.83
-45.68
-101.75
-159.05
-214.19
-263.05
-301.31
-325.39
-333.62
-327.05
-309.54
-286.83
-264.83
-247.98
-237.99
-233.61
-231.49
-227.31
-217.30
-199.10
-172.13
-137.42
-96.97
-53.31
-9.03
33.27
70.79
100.73
120.64
129.23
127.13
117.12
103.79
92.34
86.99
89.48
98.45
109.87
118.76
121.34
116.58
106.53
95.18
86.42
82.44
83.27
87.59
94.24
103.21
115.58
132.49
153.98
178.45
203.27
225.97
245.26
261.18
274.27
284.51
290.71
290.82
282.96
266.58
243.02
215.16
186.57
160.30
138.21
120.69
107.01
95.71
85.09
73.66
60.41
44.94
27.31
7.92
-12.91
-35.14
-59.02
-85.05
-113.83
-146.06
-182.17
-221.75
-262.93
-302.09
-334.44
-355.44
-362.53
-356.27
-340.17
-319.26
-298.09
-279.12
-262.45
-246.63
-230.09
-212.23
-193.52
-174.99
-157.40
-140.88
-125.08
-109.77
-95.28
-82.49
-72.60
-66.32
-63.49
-62.92
-62.80
-61.47
-58.04
-52.71
-46.55
-41.00
-37.18
-35.50
-35.66
-36.87
-38.38
-39.80
-41.23
-43.15
-46.14
-50.65
-56.74
-63.96
-71.36
-77.56
-81.03
-80.54
-75.49
-66.23
-53.91
-40.12
-26.42
-13.89
-3.07
5.82
12.57
16.73
17.70
15.10
9.09
0.54
-9.13
-18.53
-26.79
-33.96
-40.94
-49.03
-59.27
-71.94
-86.38
-101.31
-115.26
-127.28
-137.17
-145.65
-154.26
-165.34
-181.57
-205.17
-236.63
-273.66
-310.97
-341.61
-359.30
-360.89
-347.59
-324.29
-297.24
-271.41
-248.80
-228.53
-208.24
-185.93
-160.96
-133.91
-105.71
-76.70
-46.31
-13.50
22.67
62.83
107.24
156.13
209.50
266.36
323.71
376.19
416.88
439.14
438.82
415.82
374.34
321.90
267.59
220.33
187.33
172.94
177.73
198.28
227.77
257.61
279.58
287.87
280.06
256.91
221.54
178.70
134.31
94.68
65.27
49.03
45.18
49.35
55.29
57.43
52.98
42.52
28.95
15.54
4.44
-3.94
-10.25
-15.35
-19.46
-22.16
-22.66
-20.49
-15.82
-9.63
-3.64
0.29
1.04
-1.05
-3.91
-4.41
0.47
12.26
30.37
52.19
74.04
92.18
103.52
106.10
99.10
82.75
58.32
27.86
-6.22
-41.66
-77.04
-112.43
-149.65
-191.70
-241.22
-298.52
-360.13
-418.91
-465.96
-493.70
-498.77
-483.09
-452.72
-415.12
-376.28
-339.10
-303.73
-268.87
-233.28
-196.27
-157.29
-115.07
-67.44
-12.41
49.87
115.58
177.16
225.32
252.68
257.04
242.57
218.12
193.31
174.71
163.83
158.00
153.09
146.34
137.60
128.66
121.39
116.36
112.54
108.18
101.93
93.57
83.99
74.78
67.58
63.65
63.62
67.38
74.11
82.54
91.32
99.42
106.24
111.53
115.18
117.18
117.81
117.91
118.81
121.80
127.15
133.44
137.63
136.14
126.52
108.79
85.78
62.09
42.27
28.96
21.97
18.64
15.23
8.61
-2.49
-17.32
-33.86
-49.90
-63.89
-75.08
-82.98
-86.86
-85.62
-78.46
-65.96
-50.74
-37.15
-29.84
-31.91
-43.44
-61.43
-80.76
-96.10
-103.44
-101.02
-89.27
-70.39
-47.72
-25.50
-8.57
-1.72
-8.49
-29.73
-62.45
-100.00
-133.65
-155.09
-158.73
-143.08
-110.76
-67.46
-20.34
23.62
58.93
82.52
94.01
95.37
90.01
81.66
73.24
66.46
61.88
59.35
58.37
58.02
56.83
52.87
44.40
30.58
12.03
-9.38
-31.26
-51.53
-69.14
-84.22
-97.83
-111.29
-125.58
-140.86
-156.23
-170.14
-181.26
-189.54
-196.85
-206.45
-221.31
-242.07
-265.89
-286.90
-298.42
-295.79
-278.23
-248.87
-212.93
-175.34
-139.09
-104.99
-72.57
-41.37
-11.61
16.11
41.55
65.67
90.84
120.29
156.87
201.39
251.33
301.04
343.31
372.10
385.15
384.99
377.88
370.98
369.42
374.68
384.75
395.61
402.98
403.23
393.67
372.72
340.23
298.19
251.02
205.07
167.12
142.52
133.61
138.95
153.61
170.47
182.32
184.13
174.78
157.48
138.67
125.52
123.24
133.36
153.53
178.76
203.27
222.06
231.69
230.56
218.80
198.17
171.80
143.52
116.96
94.59
77.10
63.50
51.80
39.95
26.53
11.09
-6.05
-24.16
-42.64
-61.27
-80.37
-100.86
-124.09
-151.38
-183.18
-218.19
-252.92
-282.24
-300.90
-305.46
-295.74
-274.96
-248.40
-221.38
-197.52
-178.10
-162.63
-150.02
-139.49
-130.77
-123.69
-117.77
-112.12
-105.91
-98.97
-92.03
-86.45
-83.65
-84.39
-88.38
-94.36
-100.55
-105.26
-107.41
-106.74
-103.84
-99.82
-95.95
-93.29
-92.29
-92.66
-93.30
-92.56
-88.72
-80.58
-67.94
-51.73
-33.77
-16.17
-0.66
11.85
21.35
28.42
33.70
37.56
39.97
40.73
39.77
37.33
33.99
30.37
26.92
23.75
20.62
17.27
13.55
9.68
6.02
2.96
0.57
-1.50
-3.89
-7.26
-11.92
-17.69
-23.89
-29.66
-34.39
-37.92
-40.67
-43.46
-47.17
-52.49
-59.57
-67.87
-76.05
-82.15
-84.02
-79.93
-69.27
-52.92
-33.04
-12.45
6.27
21.50
32.79
40.55
45.47
48.09
48.60
47.03
43.56
38.70
33.22
27.91
23.31
19.54
16.45
13.73
11.29
9.25
7.88
7.33
7.41
7.46
6.59
4.01
-0.57
-6.77
-13.65
-20.07
-25.12
-28.50
-30.57
-32.22
-34.54
-38.46
-44.55
-52.77
-62.38
-71.85
-79.00
-81.57
-77.83
-67.37
-51.34
-32.18
-12.80
4.42
18.21
28.49
35.85
40.94
43.93
44.60
42.69
38.29
32.09
25.27
19.04
14.28
11.31
9.86
9.37
9.29
9.37
9.56
9.96
10.47
10.64
9.76
7.16
2.48
-4.05
-11.68
-19.37
-26.18
-31.55
-35.51
-38.54
-41.35
-44.69
-49.07
-54.59
-60.73
-66.37
-69.93
-69.76
-64.76
-54.79
-40.88
-24.88
-8.91
5.29
16.73
25.05
30.33
32.74
32.46
29.84
25.58
20.73
16.53
13.89
13.14
13.94
15.47
16.81
17.32
16.79
15.42
13.56
11.42
8.96
5.89
1.89
-3.17
-9.05
-15.21
-20.98
-25.76
-29.30
-31.78
-33.78
-36.14
-39.77
-45.38
-53.30
-63.28
-74.36
-84.92
-93.07
-97.11
-96.06
-90.01
-80.09
-68.06
-55.78
-44.80
-36.24
-31.03
-30.13
-34.66
-45.72
-63.95
-89.06
-119.52
-152.65
-184.98
-212.93
-233.38
-244.32
-244.99
-235.86
-218.33
-194.26
-165.73
-134.78
-103.39
-73.33
-45.95
-22.03
-1.56
16.05
31.73
46.30
60.14
72.99
84.04
92.15
96.18
95.39
89.71
80.05
68.21
56.60
47.57
42.68
42.29
45.50
50.73
56.34
61.33
65.51
69.32
73.41
78.20
83.52
88.70
92.75
94.68
93.88
90.39
84.97
78.89
73.49
69.59
67.21
65.59
63.60
60.39
55.86
50.81
46.57
44.34
44.55
46.62
49.21
50.83
50.59
48.63
46.13
44.89
46.64
52.48
62.63
76.36
92.16
107.87
120.88
128.56
128.79
121.01
106.48
88.05
69.25
52.58
38.44
24.75
7.99
-14.70
-43.68
-75.94
-106.19
-129.09
-141.69
-144.70
-141.85
-137.54
-134.15
-130.62
-123.37
-108.90
-86.64
-60.03
-35.23
-17.86
-10.22
-9.95
-11.50
-8.99
1.24
19.58
43.50
69.48
94.45
116.57
135.33
150.67
162.56
170.33
172.37
166.47
150.84
125.66
93.97
61.17
33.03
13.13
1.16
-6.66
-15.29
-28.11
-45.28
-64.35
-82.34
-97.91
-112.09
-127.22
-145.19
-165.94
-187.53
-207.51
-224.45
-238.72
-251.93
-265.65
-280.11
-293.62
-303.05
-305.24
-298.56
-284.05
-265.22
-246.72
-232.41
-223.73
-219.24
-215.63
-209.50
-199.05
-184.71
-168.45
-152.29
-137.08
-122.16
-106.12
-87.93
-67.79
-46.94
-26.93
-8.60
8.38
25.28
43.61
64.26
87.00
110.50
133.11
153.44
171.07
186.56
200.99
215.46
230.70
247.10
264.86
284.03
304.09
323.32
338.55
345.72
341.23
323.51
293.94
256.62
216.88
179.56
147.98
123.89
108.21
101.63
104.41
115.46
131.47
147.15
156.86
157.01
147.90
133.69
120.51
113.39
114.02
120.25
127.73
132.37
132.36
128.65
123.82
120.29
118.82
118.10
115.47
108.22
94.69
74.75
49.61
21.08
-9.02
-39.13
-67.61
-92.33
-110.76
-120.73
-121.42
-114.13
-102.01
-88.79
-77.33
-68.62
-61.98
-56.17
-50.60
-45.88
-43.39
-44.34
-48.94
-56.22
-64.62
-72.75
-79.97
-86.27
-91.89
-96.62
-99.47
-98.75
-92.65
-80.19
-61.83
-39.67
-16.76
3.86
20.24
31.98
40.13
46.47
52.66
59.68
67.55
75.55
82.59
87.59
89.83
89.13
85.88
80.82
74.76
68.38
62.06
55.93
50.04
44.44
39.22
34.40
29.76
24.89
19.32
12.73
5.09
-3.29
-11.91
-20.29
-28.11
-35.31
-42.07
-48.70
-55.51
-62.73
-70.25
-77.62
-83.94
-88.06
-88.95
-86.14
-79.91
-71.28
-61.58
-51.95
-42.97
-34.53
-26.04
-16.93
-6.98
3.40
13.36
21.93
28.43
32.66
34.95
35.94
36.36
36.84
37.81
39.54
42.17
45.70
50.03
54.89
59.97
65.07
70.35
76.22
83.10
90.99
99.19
106.26
110.40
109.95
103.88
91.89
74.34
51.95
25.71
-3.07
-32.73
-61.12
-85.85
-104.62
-115.71
-118.29
-112.52
-99.50
-81.17
-60.06
-38.92
-20.29
-6.02
3.17
7.72
9.04
8.95
9.19
10.93
14.65
20.19
26.94
34.12
41.04
47.30
52.81
57.79
62.46
66.70
69.94
71.24
69.84
65.68
59.67
53.46
48.69
46.13
45.24
44.39
41.62
35.68
26.56
15.51
4.33
-5.37
-12.67
-17.24
-18.91
-17.35
-12.20
-3.64
6.92
16.66
21.95
19.64
8.27
-11.13
-35.38
-60.20
-81.55
-96.75
-104.73
-105.84
-101.21
-92.35
-80.87
-68.51
-56.99
-47.72
-41.39
-37.60
-34.93
-31.43
-25.50
-16.74
-6.33
3.29
9.44
10.22
5.40
-3.61
-14.30
-24.03
-30.80
-33.63
-32.49
-28.14
-21.82
-15.01
-9.23
