1495180635.00
64.000000
-0.00
-0.00
-0.00
-0.00
-0.00
-0.00
-0.00
-0.00
-0.00
-0.00
0.00
0.01
0.01
-0.00
-0.03
-0.05
-0.05
0.00
0.13
0.36
0.66
1.01
1.37
1.72
2.06
2.40
2.79
3.24
3.80
4.42
5.06
5.66
6.20
6.68
7.15
7.68
8.31
9.14
10.09
11.04
11.88
12.56
13.14
13.76
14.65
15.96
17.91
20.32
22.90
25.38
27.58
29.57
31.68
34.32
37.81
42.54
48.15
54.10
59.83
64.97
69.58
74.14
79.34
85.71
93.76
103.00
112.62
121.73
129.77
136.75
143.30
150.75
157.77
166.64
177.95
191.79
206.97
220.57
228.25
225.36
208.53
176.87
132.76
80.05
23.07
-34.94
-92.44
-149.16
-205.23
-260.37
-313.74
-363.87
-409.83
-450.91
-486.50
-515.74
-537.23
-549.22
-549.96
-538.37
-514.21
-478.67
-433.88
-382.45
-327.02
-269.84
-212.63
-156.66
-102.95
-52.37
-5.90
35.58
71.43
101.35
125.50
144.38
158.69
169.15
176.37
180.75
182.57
182.07
179.51
175.23
169.65
163.18
156.15
148.81
141.30
133.69
126.02
118.33
110.69
103.16
95.80
88.68
81.83
75.25
68.95
62.95
57.25
51.86
46.78
42.03
37.59
33.45
29.61
26.07
22.81
19.83
17.11
14.67
12.48
10.54
8.83
7.35
6.07
4.97
4.05
3.27
2.62
2.09
1.65
1.30
1.01
0.79
0.61
0.47
0.37
0.28
0.23
0.18
0.16
0.14
0.13
0.13
0.14
0.16
0.19
0.23
0.29
0.34
0.36
0.35
0.30
0.24
0.17
0.15
0.17
0.23
0.31
0.38
0.40
0.38
0.33
0.29
0.29
0.36
0.50
0.66
0.79
0.84
0.81
0.73
0.69
0.77
1.04
1.44
1.88
2.19
2.27
2.10
1.78
1.53
1.57
2.02
2.80
3.66
4.28
4.40
3.96
3.18
2.47
2.27
2.81
3.99
5.39
6.43
6.67
5.97
4.60
3.11
1.99
1.47
1.35
1.09
0.01
-2.48
-6.85
-13.38
-22.02
-31.97
-41.49
-48.12
-49.44
-44.22
-33.19
-19.08
-5.57
4.17
8.72
8.67
6.01
2.92
0.91
0.49
1.51
3.68
6.79
10.62
14.71
18.27
20.42
20.59
18.74
15.40
11.51
8.00
5.45
4.02
3.40
3.06
2.47
1.37
-0.15
-1.75
-3.03
-3.77
-3.93
-3.80
-3.83
-4.43
-5.74
-7.65
-9.73
-11.55
-12.85
-13.56
-13.92
-14.39
-15.42
-17.20
-19.54
-21.89
-23.41
-23.35
-21.09
-16.63
-10.54
-3.81
2.52
7.67
11.41
14.08
15.38
15.62
15.22
14.48
13.58
12.58
11.48
10.26
8.96
7.64
6.56
5.89
5.70
5.88
6.16
6.16
5.52
3.99
1.53
-1.55
-4.88
-8.17
-11.26
-14.16
-16.96
-19.85
-23.01
-26.65
-30.77
-35.16
-39.29
-42.30
-43.23
-41.32
-36.34
-28.68
-19.27
-9.19
0.58
9.40
16.92
23.03
27.66
30.72
32.22
32.32
31.38
29.95
28.54
27.51
26.96
26.73
26.51
26.02
25.12
23.86
22.43
21.01
19.71
18.50
17.15
15.36
12.89
9.68
5.94
2.13
-1.32
-4.16
-6.49
-8.72
-11.36
-14.77
-19.05
-24.06
-29.38
-34.47
-38.61
-41.09
-41.19
-38.50
-33.06
-25.46
-16.68
-7.81
0.31
7.27
13.05
17.80
21.72
24.87
27.19
28.66
29.37
29.54
29.52
29.55
29.74
30.00
30.08
29.73
28.81
27.33
25.43
23.31
21.16
19.10
17.13
15.24
13.35
11.42
9.41
7.33
5.13
2.80
0.35
-2.23
-4.83
-7.34
-9.66
-11.76
-13.80
-16.07
-18.91
-22.48
-26.55
-30.48
-33.24
-33.84
-31.66
-26.71
-19.66
-11.58
-3.56
3.63
9.61
14.35
18.02
20.77
22.68
23.82
24.28
24.23
23.86
23.35
22.81
22.29
21.75
21.10
20.22
19.02
17.50
15.78
14.04
12.46
11.03
9.55
7.70
5.23
2.08
-1.48
-5.05
-8.17
-10.60
-12.38
-13.80
-15.31
-17.28
-19.93
-23.22
-26.85
-30.32
-33.00
-34.27
-33.62
-30.86
-26.13
-19.87
-12.80
-5.67
0.90
6.47
10.85
14.02
16.10
17.28
17.80
17.88
17.70
17.44
17.17
16.94
16.74
16.52
16.23
15.79
15.17
14.30
13.20
11.92
10.55
9.19
7.86
6.49
4.88
2.87
0.33
-2.66
-5.87
-8.92
-11.49
-13.45
-14.95
-16.33
-17.98
-20.14
-22.82
-25.78
-28.59
-30.69
-31.57
-30.82
-28.30
-24.15
-18.81
-12.93
-7.16
-2.05
2.09
5.17
7.40
9.00
10.22
11.17
11.87
12.27
12.29
12.02
11.60
11.23
10.99
10.79
10.36
9.49
8.16
6.60
5.16
4.11
3.53
3.24
2.94
2.36
1.38
0.08
-1.38
-2.86
-4.23
-5.46
-6.51
-7.37
-8.08
-8.76
-9.62
-10.86
-12.59
-14.67
-16.67
-17.96
-17.95
-16.24
-12.85
-8.14
-2.75
2.65
7.46
11.30
13.94
15.34
15.55
14.75
13.20
11.26
9.36
7.93
7.29
7.57
8.62
10.02
11.26
11.95
11.94
11.38
10.62
9.94
9.42
8.94
8.26
7.20
5.75
4.02
2.17
0.30
-1.56
-3.44
-5.31
-7.12
-8.82
-10.40
-12.03
-13.90
-16.20
-18.85
-21.46
-23.38
-23.88
-22.50
-19.21
-14.48
-9.15
-4.12
-0.07
2.74
4.38
5.18
5.50
5.58
5.48
5.15
4.50
3.53
2.32
1.02
-0.28
-1.51
-2.73
-4.06
-5.56
-7.28
-9.21
-11.33
-13.70
-16.40
-19.53
-23.06
-26.84
-30.63
-34.24
-37.68
-41.11
-44.79
-48.88
-53.32
-57.83
-62.05
-65.57
-68.07
-69.20
-68.58
-65.73
-60.31
-52.17
-41.56
-29.09
-15.54
-1.69
11.84
24.64
36.38
46.78
55.56
62.48
67.41
70.35
71.43
70.89
69.03
66.22
62.82
59.16
55.51
52.04
48.80
45.74
42.72
39.52
35.94
31.87
27.40
22.77
18.31
14.39
11.15
8.56
6.33
4.09
1.50
-1.59
-5.07
-8.60
-11.65
-13.61
-14.03
-12.69
-9.77
-5.78
-1.44
2.58
5.81
8.09
9.51
10.25
10.48
10.26
9.64
8.70
7.58
6.52
5.68
5.12
4.78
4.56
4.33
4.08
3.85
3.70
3.67
3.69
3.63
3.28
2.50
1.24
-0.42
-2.30
-4.17
-5.91
-7.55
-9.25
-11.22
-13.46
-15.74
-17.58
-18.43
-17.90
-15.89
-12.66
-8.71
-4.59
-0.76
2.46
4.99
6.82
8.01
8.54
8.42
7.67
6.41
4.88
3.39
2.24
1.55
1.25
1.09
0.79
0.17
-0.79
-1.87
-2.83
-3.49
-3.83
-4.03
-4.31
-4.86
-5.75
-6.90
-8.22
-9.68
-11.24
-12.91
-14.50
-15.66
-15.87
-14.72
-12.03
-8.01
-3.18
1.79
6.33
10.09
12.99
15.00
16.14
16.36
15.66
14.12
12.08
10.03
8.52
7.94
8.38
9.58
11.02
12.13
12.45
11.81
10.29
8.14
5.64
3.04
0.50
-1.90
-4.08
-6.09
-7.95
-9.79
-11.73
-13.83
-16.00
-18.04
-19.61
-20.32
-19.86
-18.10
-15.15
-11.40
-7.35
-3.57
-0.47
1.71
2.97
3.46
3.36
2.82
1.93
0.79
-0.49
-1.70
-2.64
-3.13
-3.16
-2.94
-2.80
-3.08
-3.97
-5.42
-7.17
-8.94
-10.53
-11.94
-13.34
-14.91
-16.76
-18.82
-20.94
-22.85
-24.26
-24.84
-24.25
-22.22
-18.64
-13.69
-7.82
-1.65
4.17
9.15
13.03
15.71
17.23
17.67
17.22
16.13
14.76
13.46
12.59
12.32
12.60
13.18
13.63
13.55
12.62
10.82
8.32
5.53
2.83
0.50
-1.42
-3.07
-4.75
-6.76
-9.24
-12.14
-15.14
-17.74
-19.39
-19.68
-18.42
-15.72
-11.88
-7.30
-2.32
2.73
7.51
11.61
14.62
16.27
16.57
15.80
14.47
13.01
11.67
10.43
9.14
7.70
6.18
4.76
3.59
2.69
1.90
1.02
-0.08
-1.35
-2.59
-3.66
-4.53
-5.30
-6.14
-7.18
-8.46
-9.96
-11.62
-13.37
-15.08
-16.44
-16.97
-16.10
-13.37
-8.71
-2.50
4.52
11.47
17.62
22.48
25.87
27.83
28.56
28.32
27.44
26.27
25.11
24.14
23.46
23.07
22.90
22.88
22.90
22.88
22.69
22.26
21.54
20.56
19.37
17.99
16.43
14.71
12.86
10.99
9.16
7.28
5.09
2.29
-1.28
-5.45
-9.64
-13.09
-15.09
-15.22
-13.48
-10.18
-5.86
-1.08
3.63
7.81
11.04
13.00
13.56
12.84
11.17
9.03
6.83
4.87
3.28
2.06
1.15
0.46
-0.09
-0.62
-1.23
-2.07
-3.22
-4.72
-6.58
-8.67
-10.87
-12.99
-14.84
-16.31
-17.38
-18.18
-18.95
-19.93
-21.33
-23.22
-25.49
-27.82
-29.72
-30.62
-29.98
-27.49
-23.17
-17.39
-10.82
-4.24
1.63
6.31
9.62
11.65
12.65
12.94
12.77
12.32
11.69
10.96
10.18
9.45
8.87
8.48
8.26
8.09
7.84
7.40
6.73
5.92
5.06
4.22
3.32
2.19
0.62
-1.52
-4.11
-6.87
-9.43
-11.49
-13.01
-14.25
-15.52
-17.11
-18.98
-20.75
-21.85
-21.73
-20.09
-16.97
-12.75
-7.84
-2.69
2.34
6.95
10.83
13.72
15.43
15.98
15.64
14.85
14.08
13.62
13.48
13.43
13.19
12.58
11.64
10.63
9.85
9.50
9.58
9.81
9.71
8.86
7.02
4.36
1.38
-1.16
-2.66
-2.85
-2.04
-0.98
-0.55
-1.32
-3.28
-5.83
-7.95
-8.63
-7.14
-3.09
3.46
12.19
22.61
34.13
46.13
58.19
70.25
82.60
95.77
109.97
124.58
137.92
147.54
151.32
148.77
141.84
134.60
131.76
136.74
150.27
170.44
193.83
217.21
238.52
256.67
270.66
278.69
278.05
266.05
241.15
203.94
157.44
106.69
57.89
17.35
-9.83
-21.14
-17.51
-3.33
14.74
29.77
36.69
33.46
21.03
2.25
-19.50
-41.45
-61.75
-79.47
-94.41
-107.19
-119.39
-133.38
-151.45
-174.24
-199.04
-219.49
-227.04
-214.19
-178.12
-122.74
-58.11
2.91
49.13
74.53
79.31
68.37
48.52
25.93
4.98
-11.72
-22.75
-27.60
-26.80
-22.10
-16.21
-11.96
-11.23
-14.22
-19.56
-25.09
-29.08
-31.03
-31.80
-33.04
-36.23
-42.03
-49.88
-58.39
-65.82
-70.79
-72.70
-72.02
-70.15
-69.11
-70.83
-76.63
-86.55
-99.32
-112.64
-123.97
-131.39
-134.14
-132.67
-128.21
-122.16
-115.55
-108.83
-101.93
-94.48
-86.05
-76.30
-64.97
-51.84
-36.68
-19.27
0.43
22.16
45.22
68.69
91.60
113.04
132.03
147.30
157.04
159.15
151.94
134.94
109.44
78.32
45.14
13.01
-16.18
-41.76
-63.70
-81.93
-96.23
-106.79
-114.87
-123.03
-134.18
-150.07
-169.86
-189.91
-204.89
-209.87
-202.25
-182.56
-154.01
-121.15
-88.45
-59.45
-36.38
-20.10
-9.91
-3.69
1.67
9.22
20.85
36.55
54.57
72.34
87.53
98.74
105.48
107.76
105.62
99.20
88.85
75.36
59.96
43.89
28.15
13.43
0.28
-10.78
-19.21
-24.69
-27.26
-27.25
-25.21
-21.56
-16.64
-10.78
-4.50
1.48
6.41
9.84
11.81
12.70
12.89
12.35
10.64
7.08
1.32
-6.43
-15.34
-24.20
-31.84
-37.32
-40.14
-40.18
-37.74
-33.56
-28.73
-24.51
-21.91
-21.36
-22.53
-24.62
-26.88
-29.15
-32.07
-36.75
-43.90
-53.15
-62.74
-69.97
-72.20
-67.96
-57.67
-43.41
-28.26
-15.08
-5.78
-1.03
-0.45
-2.98
-7.14
-11.19
-13.27
-11.85
-6.34
2.36
11.88
19.08
21.22
17.11
7.59
-4.80
-16.87
-25.88
-30.36
-30.11
-25.92
-18.95
-10.30
-0.95
8.15
15.99
21.61
24.30
23.91
20.91
16.22
10.92
5.79
1.12
-3.28
-7.89
-13.16
-19.29
-26.17
-33.41
-40.42
-46.53
-51.01
-53.17
-52.44
-48.61
-42.01
-33.60
-24.79
-17.05
-11.48
-8.39
-7.31
-7.35
-7.56
-7.41
-6.90
-6.45
-6.44
-6.90
-7.33
-6.92
-4.96
-1.24
3.74
8.96
13.34
16.19
17.40
17.44
16.99
16.51
15.92
14.35
10.15
1.22
-14.21
-36.60
-64.31
-93.63
-119.66
-137.97
-146.21
-144.83
-136.63
-125.42
-114.47
-105.71
-99.66
-96.09
-94.63
-95.03
-96.90
-99.42
-101.13
-100.13
-94.64
-83.52
-66.70
-45.24
-21.06
3.56
26.61
46.80
63.64
77.15
87.36
93.94
96.05
92.74
83.62
69.27
51.43
32.59
15.35
1.69
-7.51
-12.47
-14.26
-14.27
-13.69
-13.18
-12.73
-11.76
-9.36
-4.62
3.01
13.57
26.52
40.89
55.52
69.28
81.37
91.29
98.93
104.40
108.00
110.04
110.81
110.45
108.76
105.14
98.61
88.14
73.11
53.92
32.27
11.03
-6.44
-17.36
-20.47
-16.60
-8.28
1.00
8.19
11.66
11.60
9.67
8.08
8.58
11.79
17.14
23.24
28.49
31.55
31.53
28.02
20.89
10.36
-3.10
-18.64
-35.07
-51.04
-65.28
-76.95
-85.84
-92.39
-97.62
-102.82
-109.19
-117.35
-127.08
-137.15
-145.47
-149.73
-148.16
-140.23
-127.00
-110.79
-94.31
-79.77
-68.20
-59.45
-52.71
-47.18
-42.49
-38.64
-35.75
-33.59
-31.67
-29.35
-26.22
-22.21
-17.58
-12.63
-7.49
-2.18
3.31
8.79
13.88
18.11
21.18
23.01
23.67
23.18
21.33
17.74
12.09
4.65
-3.49
-10.36
-13.59
-11.20
-2.21
12.94
32.65
54.90
77.99
101.08
124.19
147.84
172.56
198.71
226.33
255.18
284.58
313.33
339.53
360.66
373.88
376.42
366.18
342.40
306.27
260.97
211.18
161.97
117.54
80.41
51.30
29.74
14.67
4.83
-1.58
-7.28
-15.84
-30.79
-54.24
-85.59
-121.39
-156.40
-185.12
-203.38
-208.99
-201.66
-182.58
-153.98
-119.06
-81.93
-47.19
-19.19
-0.84
7.18
6.57
0.64
-6.90
-13.19
-16.77
-17.52
-16.11
-13.44
-10.20
-6.99
-4.46
-3.40
-4.69
-8.92
-16.11
-25.51
-35.93
-46.15
-55.42
-63.51
-70.52
-76.33
-80.35
-81.54
-78.94
-72.23
-62.05
-49.73
-36.75
-24.15
-12.32
-1.24
9.18
18.95
27.99
36.22
43.63
50.13
55.48
59.28
61.12
60.82
58.44
54.22
48.50
41.72
34.47
27.54
21.62
16.93
12.83
7.92
0.63
-9.96
-23.50
-38.39
-52.39
-63.57
-71.04
-75.18
-77.35
-79.31
-82.62
-88.20
-96.14
-105.81
-116.16
-126.03
-134.50
-141.00
-145.20
-146.79
-145.30
-140.07
-130.44
-116.11
-97.55
-76.04
-53.48
-31.88
-12.64
3.77
17.84
30.47
42.37
53.42
62.57
68.36
69.77
67.18
62.55
59.01
59.69
66.47
79.32
96.39
115.01
132.77
148.20
160.84
170.57
176.90
178.65
174.29
162.75
144.08
119.35
90.02
56.99
20.55
-18.79
-58.97
-95.57
-122.70
-135.31
-131.95
-116.20
-95.66
-78.77
-71.25
-74.10
-84.11
-96.45
-107.51
-116.11
-122.81
-127.90
-129.94
-126.03
-113.56
-92.30
-65.31
-37.98
-15.63
-1.27
5.44
7.41
8.22
10.06
12.94
15.09
14.40
9.60
0.86
-10.71
-23.80
-37.68
-52.30
-67.91
-84.51
-101.38
-117.11
-129.79
-137.61
-139.39
-135.11
-125.88
-113.76
-100.81
-88.32
-76.10
-62.66
-45.99
-24.70
1.04
29.37
57.37
82.16
101.77
115.45
123.43
126.39
125.17
120.71
114.20
107.06
100.59
95.60
92.10
89.40
86.56
82.89
78.27
73.25
68.74
65.67
64.69
66.01
69.28
73.71
78.29
82.16
85.19
88.05
91.98
97.99
106.13
115.17
122.98
127.67
128.56
126.67
124.26
123.76
126.65
132.81
140.74
148.20
153.06
153.79
149.67
140.68
127.46
111.13
93.16
75.29
59.14
45.96
36.17
29.22
23.54
16.82
6.72
-8.39
-28.62
-52.50
-77.37
-100.50
-120.15
-136.16
-149.75
-162.53
-175.44
-187.97
-198.21
-203.52
-201.55
-191.21
-173.04
-149.08
-122.22
-95.44
-71.06
-50.49
-33.95
-20.74
-9.52
1.31
13.16
26.75
41.70
56.32
67.97
73.99
72.84
65.01
53.02
40.46
30.67
25.62
25.56
29.71
37.06
47.15
59.93
75.35
92.83
111.08
128.53
143.85
156.41
166.28
173.94
179.82
184.11
186.53
186.57
183.77
178.04
169.93
160.49
150.98
142.26
134.50
127.10
119.10
109.68
98.43
85.37
70.63
54.31
36.44
17.18
-3.01
-23.46
-43.46
-62.60
-80.69
-97.52
-112.53
-124.74
-132.98
-136.44
-135.16
-130.11
-122.94
-115.44
-108.94
-103.97
-100.25
-96.90
-92.79
-86.95
-78.84
-68.52
-56.61
-44.00
-31.51
-19.57
-8.18
2.89
13.60
23.34
30.70
33.93
31.40
22.41
7.51
-11.68
-32.99
-54.43
-74.57
-92.67
-108.31
-121.20
-131.01
-137.61
-141.46
-143.78
-146.33
-150.88
-158.53
-169.11
-181.17
-192.29
-199.68
-200.88
-194.40
-180.21
-159.95
-136.61
-113.70
-94.09
-79.06
-67.99
-59.05
-50.33
-41.25
-32.80
-26.97
-25.31
-27.67
-31.73
-33.91
-30.82
-20.71
-4.00
17.27
40.54
63.70
85.55
105.47
122.82
136.58
145.40
148.17
144.67
136.05
124.64
113.39
105.00
101.11
101.88
105.94
110.93
114.20
113.61
108.05
97.58
83.14
65.96
47.10
27.19
6.50
-14.75
-36.17
-57.13
-76.84
-94.43
-108.95
-119.38
-124.47
-123.02
-114.24
-98.27
-76.43
-51.04
-24.88
-0.42
20.80
38.36
52.62
64.29
73.94
81.72
87.54
91.31
93.23
93.87
94.01
94.30
94.99
95.82
96.05
94.85
91.63
86.24
78.97
70.31
60.70
50.30
39.04
26.75
13.40
-0.73
-15.19
-29.48
-43.18
-55.97
-67.38
-76.59
-82.39
-83.49
-79.08
-69.36
-55.66
-40.14
-25.04
-11.99
-1.55
6.71
13.76
20.52
27.43
34.53
41.59
48.34
54.62
60.33
65.29
69.21
71.73
72.57
71.80
69.76
67.03
64.14
61.33
58.42
54.87
50.07
43.71
36.01
27.62
19.39
11.83
4.77
-2.61
-11.32
-21.96
-34.11
-46.30
-56.44
-62.53
-63.37
-58.94
-50.23
-38.85
-26.48
-14.58
-4.19
4.08
9.93
13.39
14.72
14.45
13.26
11.83
10.73
10.31
10.68
11.75
13.41
15.60
18.36
21.72
25.61
29.74
33.69
36.97
39.25
40.40
40.50
39.62
37.74
34.61
29.80
22.85
13.43
1.57
-12.13
-26.41
-39.53
-49.63
-55.31
-56.17
-52.96
-47.26
-40.90
-35.30
-31.18
-28.65
-27.58
-27.87
-29.47
-32.17
-35.41
-38.26
-39.81
-39.45
-37.08
-32.89
-27.05
-19.39
-9.57
2.53
16.33
30.46
43.12
52.84
59.07
62.28
63.56
63.79
62.90
59.50
51.21
35.49
10.71
-22.96
-63.12
-105.52
-144.95
-176.39
-196.08
-202.17
-194.75
-175.61
-147.75
-114.88
-80.94
-49.69
-24.13
-6.07
4.23
7.99
7.47
5.22
3.23
2.44
2.48
2.10
-0.21
-5.40
-13.37
-22.97
-32.43
-40.16
-45.42
-48.60
-50.98
-54.12
-59.11
-65.97
-73.61
-80.03
-83.03
-80.95
-73.20
-60.50
-44.61
-27.73
-11.88
1.68
12.56
21.11
27.99
33.70
38.45
42.09
44.43
45.49
45.51
44.70
42.79
38.66
30.41
16.03
-5.53
-33.45
-64.65
-94.33
-117.31
-129.68
-130.10
-120.27
-104.01
-85.70
-68.49
-53.39
-39.52
-25.03
-8.53
10.40
31.24
53.14
75.13
95.81
112.88
123.41
125.29
119.07
109.04
102.14
104.89
119.89
143.80
168.29
183.56
182.84
165.38
136.60
105.48
80.60
66.74
63.76
67.66
73.15
76.35
76.12
73.84
71.66
70.46
68.99
64.41
54.28
38.46
19.89
3.45
-6.28
-7.18
-0.36
10.72
22.36
32.48
41.34
50.75
62.39
76.33
90.62
102.05
107.71
106.28
98.64
87.26
75.15
64.57
56.40
50.12
44.45
38.22
31.07
23.47
16.45
10.79
6.57
2.96
-1.40
-7.79
-16.96
-28.83
-42.66
-57.45
-72.11
-85.70
-97.30
-105.92
-110.57
-110.55
-105.70
-96.62
-84.61
-71.36
-58.48
-47.12
-37.80
-30.61
-25.39
-21.98
-20.32
-20.31
-21.60
-23.58
-25.44
-26.46
-26.30
-25.13
-23.49
-22.07
-21.32
-21.32
-21.75
-22.11
-21.94
-21.02
-19.47
-17.68
-16.14
-15.41
-15.87
-17.63
-20.42
-23.63
-26.27
-27.37
-26.19
-22.45
-16.44
-8.86
-0.63
7.31
14.16
19.29
22.29
23.04
21.76
19.10
16.03
13.56
12.41
12.80
14.31
16.17
17.57
17.96
17.21
15.56
13.31
10.67
7.58
3.81
-0.88
-6.60
-13.30
-20.83
-29.06
-37.84
-46.86
-55.47
-62.67
-67.31
-68.38
-65.52
-59.02
-49.84
-39.35
-29.00
-20.06
-13.57
-10.18
-10.10
-12.95
-17.77
-23.13
-27.59
-30.13
-30.57
-29.61
-28.54
-28.59
-30.29
-33.02
-35.09
-34.23
-28.29
-16.01
2.57
26.10
52.20
78.16
101.63
121.30
137.16
150.28
161.80
171.77
178.28
177.70
166.00
140.80
102.86
56.37
7.96
-35.26
-67.59
-86.05
-91.00
-85.93
-76.66
-69.78
-70.87
-82.76
-104.63
-132.47
-160.52
-183.13
-196.17
-197.81
-188.62
-171.13
-149.22
-127.13
-108.47
-95.44
-88.64
-87.31
-89.90
-94.35
-98.15
-98.43
-92.57
-79.19
-59.13
-35.51
-12.47
6.51
20.17
29.46
36.45
42.65
47.95
51.12
50.82
46.98
40.95
34.87
30.64
29.22
30.29
32.66
35.04
36.56
37.24
37.50
37.85
38.34
38.75
38.48
36.79
33.27
28.10
22.68
18.98
18.83
23.23
32.51
45.52
59.82
72.52
81.00
84.91
85.27
83.55
81.09
80.04
81.79
86.47
92.97
98.85
103.79
108.20
112.67
118.21
127.98
144.27
166.61
191.30
211.13
221.57
219.71
204.38
177.11
144.60
114.65
93.40
83.79
83.85
93.33
111.05
134.41
140.93
115.77
58.57
-16.59
-79.28
-128.50
-167.57
-198.44
-224.75
-245.65
-257.10
-256.70
-245.50
-227.80
-210.81
-196.95
-186.43
-178.73
-172.87
-166.26
-157.34
-146.38
-135.25
-127.36
-122.17
-117.61
-111.61
-102.58
-89.09
-71.25
-50.92
-31.08
-15.38
-4.51
2.42
7.03
11.04
15.96
22.19
28.95
34.76
37.74
37.50
34.51
30.28
26.42
24.15
23.65
24.34
25.40
25.99
25.90
25.26
25.55
28.03
32.81
38.62
43.58
46.51
47.56
48.09
50.12
57.52
72.98
96.20
123.80
150.90
173.54
189.67
198.50
199.63
195.33
188.40
181.72
177.98
179.97
189.99
207.93
230.09
234.12
203.76
138.14
54.57
-23.95
-82.88
-119.85
-140.59
-152.93
-162.34
-168.01
-166.93
-157.67
-142.61
-126.55
-113.81
-106.51
-104.58
-106.07
-106.57
-102.40
-92.46
-78.78
-65.06
-54.41
-48.17
-45.97
-46.29
-46.06
-42.78
-35.75
-26.47
-17.52
-11.02
-7.92
-7.90
-9.80
-11.64
-11.83
-9.95
-6.94
-4.42
-3.91
-5.95
-10.21
-15.73
-21.21
-25.58
-28.49
-30.34
-31.89
-33.81
-36.67
-40.96
-46.96
-54.41
-61.85
-66.49
-65.00
-54.98
-36.46
-12.47
11.81
31.26
42.85
46.55
44.69
40.11
34.94
30.14
25.87
22.37
20.29
20.50
23.46
28.73
34.88
40.20
43.18
42.88
39.10
32.26
23.24
12.84
3.25
-4.58
-10.15
-12.67
-10.86
-3.60
8.66
22.87
33.84
36.53
28.46
11.64
-8.30
-25.01
-34.60
-37.08
-35.39
-32.73
-30.45
-27.91
-23.74
-17.70
-11.22
-6.57
-4.85
-5.09
-4.70
-1.27
5.62
13.97
20.30
21.47
16.24
5.76
-7.06
-18.75
-26.38
-28.18
-23.53
-12.88
2.16
18.65
32.40
38.75
34.01
17.08
-9.63
-40.43
-68.08
-86.23
-91.61
-84.94
-70.33
-53.42
-39.33
-31.29
-30.12
-34.82
-43.44
-53.86
-64.24
-73.19
-79.79
-83.44
-83.93
-81.25
-75.81
-68.34
-59.95
-51.82
-44.84
-39.15
-34.10
-28.56
-21.67
-13.46
-4.94
2.33
6.91
8.24
6.80
3.97
1.63
1.86
6.72
18.04
36.95
63.19
94.60
127.13
155.56
174.99
182.33
177.28
162.29
141.57
119.69
100.33
85.55
75.78
70.28
67.67
66.55
65.69
64.28
61.74
57.85
52.60
46.27
39.50
33.15
28.13
25.16
24.49
25.80
28.31
31.13
33.57
35.33
36.46
37.07
37.16
36.54
35.00
32.63
29.91
27.63
26.54
26.90
28.35
30.02
30.92
30.35
28.04
24.14
18.90
12.60
5.47
-2.10
-9.59
-16.30
-21.61
-25.26
-27.30
-28.09
-27.99
-27.21
-25.73
-23.48
-20.50
-17.00
-13.39
-10.14
-7.65
-6.15
-5.65
-6.00
-7.00
-8.49
-10.40
-12.75
-15.63
-19.04
-22.77
-26.42
-29.41
-31.15
-31.20
-29.42
-25.98
-21.32
-16.03
-10.71
-5.89
-1.96
0.93
2.77
3.67
3.75
3.15
2.05
0.69
-0.59
-1.46
-1.74
-1.51
-1.07
-0.87
-1.21
-2.05
-3.03
-3.65
-3.46
-2.32
-0.46
1.63
3.46
4.67
5.09
4.77
3.78
2.15
-0.11
-2.90
-5.97
-8.81
-10.79
-11.44
-10.58
-8.42
-5.46
-2.24
0.81
3.45
5.51
6.83
7.27
6.71
5.29
3.32
1.23
-0.61
-2.02
-3.08
-4.04
-5.11
-6.44
-8.07
-9.91
-11.90
-13.92
-15.87
-17.64
-19.20
-20.60
-21.98
-23.53
-25.36
-27.51
-29.92
-32.54
-35.36
-38.31
-41.21
-43.57
-44.75
-44.14
-41.44
-36.87
-31.12
-25.07
-19.42
-14.55
-10.48
-7.15
-4.60
-3.10
-2.92
-4.11
-6.35
-9.04
-11.46
-13.14
-13.86
-13.72
-12.98
-11.97
-11.01
-10.43
-10.47
-11.35
-13.03
-15.33
-17.83
-20.05
-21.69
-22.64
-23.14
-23.65
-24.71
-26.72
-29.79
-33.57
-37.36
-40.26
-41.46
-40.46
-37.29
-32.40
-26.52
-20.38
-14.60
-9.62
-5.64
-2.72
-0.77
0.45
1.26
2.01
2.91
3.95
4.84
5.19
4.71
3.38
1.52
-0.40
-1.99
-3.08
-3.81
-4.53
-5.53
-6.95
-8.69
-10.56
-12.39
-14.20
-16.10
-18.23
-20.63
-23.18
-25.78
-28.29
-30.66
-32.72
-34.10
-34.19
-32.32
-28.08
-21.60
-13.66
-5.44
1.90
7.53
11.15
12.92
13.22
12.45
10.95
8.93
6.61
4.25
2.09
0.35
-0.82
-1.42
-1.60
-1.59
-1.73
-2.25
-3.23
-4.53
-5.91
-7.14
-8.12
-9.01
-10.08
-11.69
-14.12
-17.48
-21.63
-26.11
-30.10
-32.61
-32.76
-30.08
-24.82
-17.84
-10.33
-3.33
2.54
7.17
10.71
13.32
15.03
15.65
15.12
13.49
11.03
8.13
5.20
2.59
0.59
-0.69
-1.26
-1.44
-1.64
-2.27
-3.49
-5.10
-6.67
-7.85
-8.59
-9.22
-10.23
-12.06
-14.87
-18.56
-22.81
-27.18
-31.06
-33.66
-34.11
-31.68
-26.09
-17.74
-7.66
2.74
12.19
19.74
25.08
28.30
29.80
30.08
29.58
28.72
27.72
26.76
25.82
24.84
23.76
22.65
21.66
21.01
20.80
20.92
21.10
21.02
20.43
19.27
17.60
15.45
12.79
9.62
5.99
2.12
-1.73
-5.31
-8.52
-11.29
-13.38
-14.30
-13.36
-10.02
-4.23
3.44
11.96
20.17
27.15
32.38
35.66
37.01
36.50
34.34
30.78
26.25
21.31
16.62
12.80
10.36
9.49
9.92
11.05
11.98
12.05
10.99
9.06
6.92
5.20
4.19
3.71
3.28
2.25
0.12
-3.30
-7.90
-13.15
-18.08
-21.47
-22.07
-19.05
-12.38
-2.84
8.08
18.78
27.94
34.81
39.13
40.91
40.14
36.77
30.82
22.60
12.85
2.58
-7.27
-16.15
-24.13
-31.69
-39.54
-48.17
-57.70
-68.01
-78.89
-90.38
-102.80
-116.52
-131.79
-148.50
-166.21
-184.22
-201.77
-218.01
-232.06
-242.90
-249.61
-251.45
-248.02
-239.21
-225.02
-205.40
-180.17
-149.30
-113.28
-73.49
-32.18
7.90
44.30
75.41
100.74
120.83
136.66
149.18
159.08
166.77
172.63
177.07
180.48
182.95
184.04
182.83
178.18
169.25
155.74
138.00
116.68
92.52
66.29
38.96
12.00
-12.59
-32.76
-46.91
-54.47
-55.93
-52.48
-45.58
-36.51
-26.41
-16.41
-7.80
-1.96
0.06
-1.96
-7.30
-14.38
-21.42
-27.05
-30.83
-33.44
-36.52
-42.14
-52.06
-67.10
-86.65
-108.77
-130.74
-149.92
-164.47
-173.80
-178.52
-179.99
-179.80
-179.19
-178.71
-177.95
-175.57
-169.74
-158.69
-141.49
-118.42
-91.09
-61.82
-33.02
-6.56
16.48
35.67
50.96
62.46
70.42
75.30
77.83
78.92
79.53
80.30
81.40
82.34
82.29
80.40
76.37
70.73
64.66
59.47
55.89
53.70
51.72
48.55
43.07
34.99
24.69
12.91
0.51
-11.51
-21.93
-29.18
-31.59
-27.99
-18.21
-3.31
14.72
33.52
51.03
65.85
77.33
85.37
90.16
91.97
91.23
88.60
84.98
81.44
78.98
78.22
79.18
81.28
83.57
85.02
84.94
83.15
79.95
75.82
71.29
66.65
62.01
57.35
52.59
47.66
42.43
36.71
30.32
23.32
16.21
10.12
6.69
7.68
14.31
26.83
44.26
64.65
85.58
104.82
120.71
132.31
139.35
142.03
140.80
136.31
129.26
120.38
110.24
99.32
87.93
76.33
64.77
53.45
42.51
31.99
21.82
11.94
2.33
-6.98
-15.88
-24.33
-32.36
-40.09
-47.56
-54.79
-61.76
-68.56
-75.39
-82.47
-89.68
-96.32
-101.01
-101.98
-97.66
-87.19
-70.82
-49.82
-26.10
-1.74
21.39
41.71
58.04
69.45
75.42
75.90
71.45
63.30
53.29
43.50
35.91
31.97
32.19
36.30
43.34
52.08
61.30
69.77
76.33
79.83
79.34
74.44
65.42
53.21
38.97
23.77
8.42
-6.26
-19.09
-28.43
-32.48
-29.98
-20.86
-6.46
10.88
28.55
44.43
57.30
66.80
72.99
76.06
76.10
73.17
67.54
59.93
51.47
43.45
36.70
31.25
26.21
20.16
12.01
1.62
-10.10
-21.71
-32.08
-41.18
-50.00
-59.88
-71.68
-85.36
-100.17
-115.36
-130.57
-145.66
-160.00
-172.03
-179.37
-179.53
-171.31
-155.50
-134.76
-112.44
-91.35
-72.98
-57.52
-44.45
-33.11
-23.21
-15.06
-9.33
-6.67
-7.43
-11.33
-17.41
-24.04
-28.85
-29.67
-25.26
-15.65
-1.87
14.53
32.14
49.85
66.84
83.43
99.78
115.30
128.66
138.52
143.53
143.18
137.24
126.15
113.49
103.43
98.96
100.98
108.75
119.88
132.49
144.56
154.42
164.14
175.69
188.78
201.19
211.12
217.01
219.24
216.48
205.61
187.55
164.82
140.69
119.35
106.15
104.27
115.54
136.98
138.10
101.69
33.88
-41.75
-105.08
-141.35
-161.82
-176.31
-190.95
-208.10
-224.22
-233.26
-231.79
-220.35
-201.10
-177.83
-151.99
-125.54
-100.89
-77.26
-54.18
-33.85
-20.52
-17.26
-24.43
-36.82
-47.62
-51.45
-45.00
-30.07
-13.30
-2.49
-1.93
-11.19
-24.96
-37.79
-46.98
-52.23
-55.32
-58.61
-63.46
-69.56
-76.09
-82.16
-87.86
-93.75
-99.40
-103.57
-104.83
-102.34
-96.45
-88.79
-81.46
-76.40
-74.68
-76.01
-78.79
-80.73
-79.68
-74.42
-65.15
-53.37
-41.37
-31.30
-24.50
-21.18
-20.59
-21.52
-22.92
-24.12
-24.86
-25.04
-24.69
-23.90
-22.96
-22.28
-22.21
-22.72
-23.32
-23.21
-21.78
-18.99
-15.56
-12.78
-11.93
-13.76
-18.10
-23.75
-28.88
-31.40
-29.67
-22.88
-11.22
4.19
21.82
40.25
58.46
75.93
92.30
106.96
119.00
127.51
132.26
134.16
135.22
137.70
143.18
151.78
162.00
171.28
176.72
176.08
168.19
153.35
133.09
109.70
85.52
62.02
39.27
16.15
-8.63
-35.47
-63.05
-88.76
-109.97
-125.22
-134.65
-139.54
-141.42
-141.26
-139.26
-134.95
-127.43
-115.67
-98.81
-76.58
-49.85
-21.03
6.30
28.29
42.18
47.37
45.47
39.54
32.74
27.39
24.50
23.91
24.86
26.30
27.22
26.86
24.77
20.65
14.36
5.98
-4.21
-15.73
-27.92
-40.08
-51.56
-61.71
-69.83
-75.20
-77.18
-75.42
-70.01
-61.49
-50.69
-38.63
-26.43
-15.35
-6.66
-1.46
-0.18
-2.29
-6.25
-9.93
-11.40
-9.73
-5.38
0.15
4.99
7.74
7.94
5.98
2.77
-0.73
-3.77
-5.74
-6.15
-4.57
-1.06
3.57
7.63
8.88
5.31
-3.98
-18.38
-35.83
-53.51
-68.49
-78.03
-79.42
-69.82
-46.78
-9.56
39.46
93.94
144.66
182.06
199.37
194.63
170.75
133.69
90.01
45.08
2.58
-34.80
-64.59
-84.49
-93.06
-90.55
-79.33
-63.31
-46.63
-32.40
-22.13
-15.94
-13.34
-14.00
-17.71
-23.84
-30.75
-35.85
-36.61
-31.85
-22.69
-12.14
-3.34
2.53
7.22
14.36
27.09
45.58
66.36
83.93
93.78
94.75
89.30
81.54
74.53
68.78
62.72
54.69
44.69
34.45
25.81
18.48
9.24
-6.79
-33.18
-69.63
-111.23
-150.38
-180.22
-197.78
-205.01
-207.33
-210.41
-217.03
-225.74
-231.59
-228.70
-213.33
-185.69
-149.83
-111.77
-77.03
-48.66
-27.01
-10.75
1.46
9.99
14.41
14.51
11.28
7.02
4.44
5.33
9.61
15.57
20.78
23.48
23.33
21.31
18.97
17.48
17.01
16.70
15.06
10.57
2.41
-9.19
-22.70
-35.64
-45.25
-49.51
-47.77
-40.87
-30.69
-19.21
-7.88
2.61
12.04
20.32
27.13
32.02
34.73
35.38
34.47
32.68
30.48
28.11
25.58
22.91
20.20
17.58
15.10
12.62
9.84
6.38
1.89
-3.97
-11.69
-21.83
-34.88
-50.78
-68.55
-86.19
-101.06
-110.67
-113.50
-109.40
-99.46
-85.20
-67.98
-48.68
-27.85
-6.45
13.86
30.82
42.30
47.26
46.39
41.96
37.11
34.79
37.04
44.77
58.09
76.83
100.67
129.09
160.73
193.20
223.24
247.54
263.85
271.91
273.18
269.95
264.10
256.44
246.99
235.75
223.59
212.36
204.17
200.31
200.52
203.04
205.43
205.67
202.74
196.53
187.43
175.84
162.18
147.03
131.56
117.36
105.91
97.80
92.18
86.68
78.11
63.62
41.92
13.87
-17.76
-49.22
-77.17
-99.68
-116.63
-129.32
-139.63
-149.12
-158.55
-167.83
-176.37
-183.45
-188.54
-191.37
-191.94
-190.38
-186.77
-181.10
-173.23
-163.08
-150.71
-136.58
-121.41
-105.88
-90.46
-75.29
-60.34
-45.85
-32.58
-21.77
-14.55
-11.18
-10.35
-9.23
-4.45
6.32
22.97
42.18
58.18
64.54
56.56
33.22
-2.04
-42.02
-77.68
-100.68
-105.89
-93.03
-66.81
-35.33
-7.24
11.25
18.58
17.91
15.27
16.60
25.13
40.43
59.24
77.73
93.31
105.25
114.08
120.68
125.75
130.10
134.97
141.61
150.10
158.08
160.81
153.18
132.69
101.69
67.23
38.07
20.64
16.15
20.75
28.39
34.27
36.98
38.18
40.47
45.28
51.79
57.60
59.94
57.00
48.41
35.01
18.31
-0.05
-18.71
-37.05
-55.00
-72.93
-90.96
-108.60
-124.54
-137.16
-145.37
-149.38
-150.84
-152.16
-155.39
-161.13
-168.14
-173.73
-174.92
-169.56
-156.99
-137.86
-113.45
-85.20
-54.64
-23.88
4.10
25.76
38.05
39.60
31.46
16.87
0.03
-15.25
-26.64
-33.48
-36.28
-35.94
-33.21
-28.55
-22.28
-14.91
-7.16
0.30
7.35
14.78
24.06
36.70
53.22
72.42
91.56
107.33
117.19
120.13
116.65
107.79
94.28
76.22
53.61
27.29
-0.51
-26.53
-47.40
-60.56
-64.73
-59.42
-44.23
-18.51
18.26
65.52
120.67
178.80
233.52
278.38
308.57
321.94
319.21
303.28
278.02
247.17
213.43
178.33
142.33
105.25
66.87
27.17
-13.33
-53.68
-92.89
-130.48
-166.70
-202.25
-237.62
-272.20
-303.93
-329.40
-344.78
-346.98
-334.62
-308.65
-272.22
-229.97
-187.05
-148.09
-116.16
-92.29
-75.55
-63.67
-54.11
-45.00
-35.58
-25.97
-16.64
-7.93
0.03
7.23
13.81
19.85
25.57
31.23
36.95
42.38
46.66
48.65
47.48
43.03
35.99
27.50
18.59
9.67
0.55
-9.12
-19.23
-28.96
-36.70
-40.60
-39.16
-31.88
-19.64
-4.63
10.01
21.21
26.81
26.39
21.44
14.85
9.82
8.59
11.53
17.03
22.33
24.71
22.86
17.47
10.92
6.41
6.90
14.41
29.67
51.96
79.17
107.80
133.44
151.99
161.17
161.93
158.56
157.34
163.89
180.60
205.34
232.26
254.11
265.03
262.36
246.84
221.49
189.94
155.23
119.51
84.35
51.19
21.48
-3.84
-24.88
-43.03
-60.69
-80.48
-104.25
-132.47
-163.89
-196.01
-225.62
-249.79
-266.63
-275.80
-278.44
-276.63
-272.68
-268.40
-264.91
-262.62
-261.50
-261.24
-261.15
-259.98
-256.01
-247.49
-233.44
-214.29
-191.89
-168.85
-147.28
-127.75
-109.01
-88.70
-64.77
-36.73
-6.30
23.02
47.06
62.22
66.39
59.46
43.24
21.09
-2.67
-23.75
-38.91
-46.81
-48.62
-47.91
-49.75
-59.31
-80.17
-113.02
-154.88
-199.62
-239.47
-267.31
-278.74
-273.23
-253.90
-226.09
-195.49
-166.47
-141.46
-121.07
-104.77
-91.48
-79.98
-69.04
-57.46
-44.17
-28.49
-10.39
9.29
29.05
47.14
62.20
73.68
82.07
88.53
94.20
99.60
104.27
107.03
106.44
101.54
92.14
79.08
63.98
48.99
36.33
27.81
24.54
26.65
33.40
43.44
55.25
67.46
78.94
88.82
96.34
100.97
102.55
101.53
98.99
96.41
95.20
96.18
99.30
103.60
107.44
108.98
106.71
100.02
89.41
76.39
62.92
50.54
39.72
29.65
18.84
6.14
-8.43
-23.34
-36.09
-44.17
-45.92
-40.95
-29.99
-14.34
4.39
24.48
44.08
61.26
74.49
83.14
87.79
90.04
91.89
94.85
99.48
105.16
110.56
114.15
114.66
111.53
104.98
95.92
85.72
75.76
67.11
60.25
55.21
51.86
50.44
51.63
56.65
66.89
83.61
107.54
138.61
175.79
216.87
258.55
296.80
327.67
348.21
357.29
355.62
345.33
329.10
309.57
289.05
269.56
252.81
239.68
229.66
220.76
210.05
194.86
173.93
147.71
117.85
85.88
52.37
16.97
-20.56
-58.98
-95.11
-124.42
-142.68
-147.83
-140.91
-125.91
-108.39
-93.77
-85.97
-86.82
-96.22
-112.48
-132.86
-154.03
-172.48
-185.20
-190.49
-188.64
-181.82
-173.29
-166.05
-161.67
-159.92
-159.32
-158.43
-156.76
-155.24
-155.67
-159.79
-168.36
-180.54
-193.87
-204.58
-208.52
-202.27
-184.43
-156.47
-122.63
-88.73
-60.52
-41.98
-34.45
-36.81
-46.55
-61.31
-79.81
-101.80
-127.30
-156.12
-187.42
-219.37
-249.17
-273.01
-287.08
-288.72
-277.74
-256.80
-231.31
-207.48
-189.86
-179.37
-172.64
-164.18
-148.81
-123.28
-85.95
-37.80
17.44
73.86
124.36
163.92
190.08
203.45
207.10
206.87
206.70
207.12
206.57
203.17
199.08
197.43
199.68
204.82
213.04
223.48
234.66
245.55
254.64
263.70
272.90
279.91
281.81
280.87
279.82
279.90
280.72
279.88
279.91
283.36
291.31
275.72
222.95
140.89
50.99
-15.58
-67.29
-112.82
-154.84
-194.93
-227.52
-242.33
-233.87
-204.66
-163.19
-120.59
-80.27
-43.11
-11.61
9.68
18.55
14.61
-0.26
-22.21
-48.54
-74.08
-96.81
-119.10
-144.44
-171.79
-196.73
-214.55
-223.38
-225.76
-221.49
-207.71
-180.07
-134.57
-69.08
13.80
105.31
192.24
251.41
263.27
227.28
164.85
103.00
58.22
32.82
20.07
11.23
0.13
-12.57
-22.12
-25.09
-22.58
-19.05
-18.71
-23.88
-34.69
-49.88
-65.54
-76.72
-80.18
-76.15
-67.63
-58.43
-51.84
-46.11
-39.75
-29.74
-12.91
11.47
40.50
68.94
91.70
105.99
112.04
111.79
108.31
103.84
98.64
91.50
81.55
69.36
56.59
44.40
31.94
17.11
-1.77
-24.05
-45.91
-61.18
-64.24
-53.14
-31.20
-6.00
14.32
24.50
23.70
14.76
1.82
-11.93
-24.97
-36.82
-46.87
-53.57
-55.06
-50.37
-40.18
-26.97
-13.92
-3.72
1.84
1.95
-3.49
-13.59
-26.27
-38.49
-47.72
-54.02
-61.21
-75.82
-103.69
-145.96
-197.03
-245.92
-280.63
-292.87
-280.77
-248.31
-202.32
-149.63
-95.83
-46.03
-5.63
19.99
27.57
18.25
-1.94
-24.02
-39.37
-43.04
-34.81
-18.03
2.72
24.00
44.32
63.48
81.23
96.36
106.94
111.48
110.17
105.14
99.73
97.05
98.65
104.03
111.08
117.07
119.62
117.24
109.47
96.77
80.36
62.05
43.93
27.88
15.06
5.85
0.10
-2.44
-1.94
1.21
6.12
11.19
14.47
14.33
10.30
3.51
-3.45
-7.40
-5.90
1.57
12.99
24.19
30.59
28.90
18.58
1.73
-18.29
-38.45
-56.74
-71.32
-79.48
-77.68
-63.36
-37.85
-7.86
16.06
24.01
11.82
-16.19
-48.80
-72.94
-79.36
-66.06
-37.95
-3.47
29.27
55.13
72.27
81.17
83.30
80.49
74.80
68.56
64.12
63.49
67.76
76.68
88.83
101.84
113.16
120.48
122.53
119.37
112.32
103.44
94.60
86.68
79.09
70.36
59.04
44.74
28.55
12.70
-0.46
-9.49
-14.20
-15.35
-13.91
-10.45
-5.16
1.80
9.81
17.69
23.99
27.37
26.72
21.19
10.30
-5.70
-25.31
-45.67
-63.13
-74.49
-78.47
-76.23
-70.85
-65.77
-63.07
-62.60
-62.42
-60.23
-54.82
-46.97
-39.02
-33.72
-32.74
-35.91
-41.22
-45.69
-46.54
-42.31
-33.28
-21.43
-9.95
-2.49
-2.19
-10.89
-28.54
-53.04
-80.75
-107.58
-130.12
-146.47
-156.35
-160.38
-159.26
-153.17
-141.88
-125.38
-104.51
-81.22
-58.04
-37.14
-19.41
-4.22
10.08
25.08
41.33
58.00
73.26
85.31
93.36
97.99
100.80
103.50
107.01
111.08
114.52
115.83
113.73
107.31
96.00
79.51
58.13
33.06
6.55
-18.53
-39.53
-54.93
-64.66
-69.68
-71.11
-69.39
-64.09
-54.43
-40.33
-23.02
-5.09
10.21
20.18
23.56
20.86
14.07
5.71
-1.93
-7.60
-11.12
-13.10
-14.32
-15.26
-15.88
-15.78
-14.48
-11.93
-8.68
-5.95
-5.43
-8.74
-16.90
-29.75
-45.78
-62.37
-76.53
-85.73
-88.54
-84.86
-75.74
-62.90
-48.26
-33.52
-20.01
-8.49
0.79
8.09
13.90
18.80
23.16
27.26
31.32
35.68
40.83
47.26
55.14
64.30
74.23
84.35
94.26
103.72
112.46
119.89
125.01
126.56
123.04
112.96
95.07
68.73
34.54
-5.34
-47.15
-86.24
-118.21
-140.07
-150.91
-151.90
-145.47
-134.40
-120.98
-106.67
-92.13
-77.50
-62.75
-47.91
-33.22
-19.29
-6.93
3.21
10.92
16.53
20.63
23.70
25.76
26.28
24.57
20.18
13.12
3.79
-7.33
-19.89
-33.71
-48.52
-63.75
-78.55
-92.04
-103.71
-113.59
-122.16
-129.84
-136.51
-141.31
-142.81
-139.48
-130.11
-114.09
-91.40
-62.56
-28.51
9.34
49.34
89.85
129.63
168.10
205.16
240.78
274.41
304.43
328.11
341.91
341.86
324.18
286.01
226.71
149.46
62.35
-22.19
-90.35
-131.64
-143.33
-131.96
-111.11
-95.72
-96.05
-114.02
-143.74
-175.26
-199.42
-210.99
-209.09
-195.37
-171.73
-139.10
-97.91
-49.37
3.45
55.40
100.42
133.28
151.07
153.73
143.59
124.13
98.86
70.73
42.11
15.09
-8.51
-27.30
-40.84
-49.71
-55.29
-59.07
-62.04
-64.42
-65.84
-65.86
-64.28
-61.22
-57.06
-52.27
-47.28
-42.42
-37.73
-32.62
-25.83
-15.45
0.57
23.75
54.47
91.56
132.21
171.96
204.99
224.85
225.92
205.22
164.09
108.76
49.29
-3.08
-39.43
-56.03
-55.44
-45.21
-34.68
-31.37
-38.44
-54.32
-74.17
-92.55
-105.68
-112.38
-113.71
-111.67
-107.94
-103.22
-97.39
-89.87
-80.15
-67.89
-53.09
-36.18
-18.15
-0.47
15.13
26.96
33.82
35.07
30.82
21.81
9.53
-3.91
-16.04
-24.59
-28.30
-27.41
-23.63
-19.37
-16.67
-16.37
-17.68
-18.74
-17.43
-12.28
-3.03
9.39
23.18
36.21
46.55
52.85
54.65
52.64
48.78
46.02
47.58
55.97
71.73
92.71
113.96
128.92
131.47
118.32
90.67
54.43
18.46
-8.51
-21.11
-19.30
-8.20
4.38
11.25
8.70
-2.47
-18.08
-32.93
-43.13
-47.31
-46.30
-41.92
-35.65
-28.04
-18.98
-8.45
2.75
12.84
19.43
20.39
14.60
2.31
-14.99
-35.10
-55.65
-74.50
-89.75
-99.71
-102.84
-97.97
-84.72
-64.03
-38.31
-11.17
13.53
32.79
45.31
51.86
54.73
56.80
60.52
67.16
76.65
87.93
99.61
110.53
119.99
127.72
133.65
137.78
140.22
141.13
140.56
137.84
131.19
117.80
94.75
60.63
17.02
-31.27
-77.39
-114.88
-139.98
-152.74
-156.29
-154.73
-151.00
-145.82
-138.30
-127.34
-113.05
-97.01
-81.46
-68.14
-57.43
-48.52
-40.23
-31.95
-24.04
-17.54
-13.39
-11.80
-12.01
-12.64
-12.44
-10.96
-8.96
-8.16
-10.77
-18.68
-33.00
-53.63
-79.22
-107.28
-134.36
-156.56
-170.18
-172.66
-163.35
-143.85
-117.50
-88.45
-60.28
-35.15
-13.58
5.02
21.56
36.63
50.43
62.95
74.32
84.95
95.48
106.44
118.04
130.03
141.77
152.49
161.50
168.42
173.13
175.59
175.55
172.39
165.37
153.88
137.98
118.61
97.58
77.26
59.95
47.41
40.50
39.19
42.77
50.40
61.46
75.65
92.66
111.71
131.09
148.30
160.69
166.32
164.79
157.29
146.14
133.94
122.87
114.35
109.15
107.27
107.80
108.77
107.05
99.25
82.93
57.80
26.16
-7.73
-39.29
-65.38
-85.25
-100.34
-112.82
-123.94
-132.98
-137.53
-134.91
-123.86
-105.64
-83.71
-62.37
-45.00
-32.86
-25.18
-20.25
-16.80
-14.78
-15.04
-18.22
-23.75
-29.73
-34.06
-35.88
-36.52
-39.10
-46.84
-61.06
-79.98
-99.29
-113.97
-120.63
-118.93
-111.36
-101.62
-92.65
-85.40
-79.02
-71.90
-62.86
-51.60
-38.43
-23.54
-6.72
12.34
33.34
54.94
75.00
91.34
102.55
108.49
109.96
108.27
104.72
100.40
96.17
92.48
89.16
85.23
79.15
69.41
55.29
37.31
17.00
-3.74
-23.43
-41.30
-57.07
-70.48
-81.14
-88.64
-93.04
-95.21
-96.60
-98.48
-101.17
-103.61
-103.88
-100.17
-91.79
-79.45
-64.83
-49.60
-34.66
-19.94
-4.94
10.51
25.82
39.38
48.89
51.85
46.24
31.17
7.62
-21.39
-51.24
-76.97
-94.92
-103.81
-104.94
-101.06
-94.84
-87.70
-79.68
-70.21
-59.23
-47.86
-38.10
-31.90
-30.22
-32.43
-36.56
-39.88
-39.67
-33.97
-22.04
-4.57
16.51
38.56
59.08
76.51
90.55
101.68
110.26
115.60
115.91
109.09
94.29
72.99
49.00
27.15
11.32
2.75
-0.23
-1.04
-2.99
-7.69
-14.54
-21.54
-26.66
-28.99
-29.21
-29.01
-30.24
-34.07
-40.66
-49.26
-58.51
-66.84
-72.64
-74.50
-71.39
-62.85
-49.09
-31.24
-11.34
7.71
22.67
30.92
31.44
25.46
16.13
7.30
1.89
0.82
2.86
5.67
7.22
6.81
5.14
3.51
2.86
3.33
4.45
5.86
7.74
10.88
16.05
23.44
32.23
40.73
46.90
49.15
46.92
41.04
33.61
27.50
25.57
29.55
39.11
51.61
62.66
67.80
64.40
52.84
36.39
19.59
6.10
-2.77
-8.20
-12.54
-17.48
-22.94
-27.38
-28.97
-27.04
-22.62
-17.90
-14.99
-14.83
-16.96
-19.95
-22.35
-23.32
-22.90
-21.70
-20.46
-19.71
-19.46
-19.24
-18.17
-15.45
-10.93
-5.73
-2.18
-3.03
-9.88
-21.92
-35.67
-46.19
-49.24
-43.30
-30.33
-14.75
-1.49
6.14
7.41
3.85
-2.00
-7.86
-12.29
-14.76
-15.26
-13.96
-11.14
-7.23
-2.85
1.30
4.66
6.89
7.99
8.18
7.73
6.76
4.98
1.58
-4.66
-14.85
-29.19
-46.28
-63.00
-75.20
-79.23
-73.36
-58.73
-38.88
-18.47
-1.54
9.84
15.82
18.25
19.36
20.86
23.38
26.58
29.61
31.63
32.14
31.07
28.75
25.73
22.62
20.02
18.46
18.42
20.24
23.94
29.02
34.40
38.38
39.00
34.60
24.51
9.55
-7.78
-23.84
-34.96
-38.58
-34.17
-23.25
-8.72
6.18
18.89
28.03
33.30
35.05
33.89
30.49
25.63
20.35
15.82
13.16
12.99
15.22
19.19
23.89
28.39
32.03
34.46
35.24
33.74
29.15
20.84
8.81
-6.20
-23.04
-40.59
-58.13
-75.20
-90.96
-103.70
-110.93
-110.21
-100.36
-82.41
-59.60
-36.37
-16.81
-3.28
4.03
6.72
7.15
7.42
8.66
10.97
13.58
15.43
15.60
13.71
9.99
5.24
0.59
-2.91
-4.48
-3.80
-0.99
3.46
8.53
12.65
13.69
9.50
-1.13
-17.53
-36.65
-53.79
-64.09
-64.43
-54.61
-37.28
-16.64
3.35
20.17
32.94
41.78
46.85
48.02
45.18
38.84
30.52
22.53
17.01
15.06
16.21
18.81
20.90
21.19
19.42
16.25
12.60
9.19
6.32
3.90
1.51
-1.56
-6.45
-14.36
-25.88
-40.25
-54.97
-66.33
-70.78
-66.51
-54.41
-37.77
-20.98
-7.67
0.46
3.85
4.28
3.68
3.27
3.38
3.76
4.05
4.14
4.06
3.81
3.20
1.94
-0.19
-2.95
-5.60
-7.05
-6.32
-3.19
1.46
5.54
6.21
0.83
-11.85
-30.89
-52.92
-73.04
-86.36
-89.71
-82.53
-66.85
-46.22
-24.28
-3.67
14.28
29.11
40.69
48.71
52.88
53.26
50.69
46.79
43.43
42.07
43.20
46.22
49.88
52.89
54.50
54.61
53.51
51.58
49.02
45.94
42.42
38.32
33.05
25.54
14.69
0.30
-16.13
-31.29
-41.12
-42.56
-35.14
-21.37
-5.72
7.30
15.03
17.30
15.87
13.03
10.30
7.90
5.12
1.18
-4.07
-9.87
-14.94
-18.18
-19.19
-18.44
-16.97
-15.70
-15.07
-15.03
-15.37
-16.14
-17.80
-20.94
-25.87
-32.17
-38.85
-44.66
-48.55
-49.75
-47.71
-41.96
-32.14
-18.38
-1.78
15.60
31.15
42.60
48.85
50.22
48.13
44.25
39.83
35.36
30.76
25.78
20.40
14.84
9.44
4.38
-0.41
-5.21
-10.47
-16.54
-23.63
-31.66
-40.31
-49.03
-57.07
-63.63
-67.82
-68.74
-65.54
-57.53
-44.45
-26.72
-5.59
17.09
39.10
58.31
72.95
81.73
83.92
79.51
69.47
55.85
41.57
29.69
22.51
20.83
23.79
29.40
35.39
40.08
42.70
43.30
42.21
39.68
35.69
30.08
22.91
14.81
7.14
1.84
0.98
6.06
17.38
33.72
52.62
70.99
86.06
96.01
100.27
99.25
93.88
85.18
74.07
61.43
48.19
35.38
23.88
14.14
5.92
-1.59
-9.45
-18.45
-28.77
-39.92
-51.11
-61.53
-70.73
-78.77
-86.10
-93.43
-101.43
-110.27
-119.30
-126.89
-130.68
-128.32
-118.34
-100.89
-77.85
-52.27
-27.30
-5.33
12.46
25.95
35.50
41.55
44.40
44.49
42.63
40.04
38.06
37.63
38.86
40.96
42.57
42.38
39.55
34.00
26.27
17.20
7.52
-2.35
-12.51
-23.43
-35.77
-49.94
-65.68
-81.71
-95.88
-105.71
-109.24
-105.86
-96.56
-83.55
-69.47
-56.46
-45.75
-37.65
-31.87
-28.02
-25.84
-25.12
-25.46
-26.02
-25.53
-22.59
-16.27
-6.52
5.52
17.97
28.73
36.22
39.77
39.76
37.57
35.38
35.90
41.58
53.69
71.39
91.54
109.52
120.93
123.26
116.74
103.93
88.41
73.27
60.36
50.24
42.82
37.82
34.89
33.40
32.28
30.05
25.32
17.22
5.79
-7.86
-21.81
-33.69
-41.42
-43.87
-41.34
-35.53
-28.89
-23.75
-21.49
-22.34
-25.71
-30.82
-37.18
-44.55
-52.49
-59.84
-64.78
-65.28
-59.93
-48.63
-32.59
-13.91
5.23
22.92
37.49
47.21
50.29
45.45
32.91
14.99
-4.15
-19.84
-28.71
-29.88
-25.13
-17.69
-10.51
-5.06
-1.05
2.81
7.63
13.45
19.10
22.69
22.36
17.15
7.35
-5.36
-18.25
-28.18
-32.43
-29.51
-19.61
-4.43
13.51
31.68
48.20
61.94
72.30
78.85
81.22
79.29
73.50
64.84
54.46
43.20
31.24
18.30
4.25
-10.29
-23.80
-34.28
-40.12
-40.88
-37.45
-31.78
-26.22
-22.85
-23.09
-27.47
-35.44
-45.42
-54.89
-60.96
-61.14
-54.05
-39.84
-20.17
2.33
24.67
43.99
58.05
65.39
65.60
59.33
48.22
34.49
20.32
7.33
-3.82
-13.36
-22.25
-31.74
-43.07
-56.95
-73.21
-90.62
-106.94
-119.66
-126.93
-128.48
-125.99
-122.38
-120.55
-121.71
-124.70
-126.32
-122.73
-111.27
-91.54
-65.45
-36.13
-6.71
20.60
44.55
64.37
79.27
88.50
91.79
89.96
84.98
79.54
76.19
76.49
80.68
87.86
96.63
105.72
114.31
122.02
128.70
134.04
137.46
138.18
135.41
128.72
118.37
105.37
91.54
79.15
70.40
66.93
69.26
76.58
86.94
97.73
106.40
111.03
110.74
105.66
96.68
85.08
72.24
59.38
47.42
36.86
27.70
19.44
11.30
2.44
-7.60
-18.77
-30.52
-42.12
-53.10
-63.52
-74.05
-85.69
-99.32
-115.29
-133.00
-151.01
-167.17
-179.10
-184.73
-182.82
-173.35
-157.60
-137.86
-116.80
-96.80
-79.42
-65.29
-54.27
-45.84
-39.52
-34.98
-32.07
-30.58
-30.25
-30.58
-31.07
-31.39
-31.41
-31.29
-31.32
-31.80
-32.88
-34.66
-37.29
-41.12
-46.64
-53.92
-62.19
-69.45
-72.76
-69.14
-56.71
-35.58
-7.99
22.31
51.19
75.10
91.75
100.23
100.73
94.38
82.95
68.71
54.05
41.19
31.68
26.19
24.59
25.95
28.86
31.79
33.36
32.62
29.28
23.47
15.53
5.72
-6.01
-19.64
-34.67
-49.59
-61.97
-68.95
-68.18
-58.84
-42.03
-20.52
2.20
22.84
39.03
49.51
53.90
52.42
45.59
34.33
20.00
4.36
-10.73
-23.76
-33.88
-40.95
-45.45
-48.04
-49.35
-49.92
-50.13
-50.44
-51.40
-53.70
-57.98
-64.49
-72.73
-81.20
-87.56
-89.16
-83.84
-70.75
-50.61
-25.61
1.37
27.60
51.01
70.42
85.29
95.58
101.50
103.69
103.10
100.99
98.67
97.21
97.10
98.04
98.99
98.45
95.02
87.95
77.33
64.08
49.34
33.79
17.43
-0.23
-19.41
-39.20
-57.32
-70.63
-76.33
-73.06
-61.46
-43.86
-23.33
-2.69
16.17
32.27
45.25
54.94
61.12
63.67
62.71
58.85
53.13
46.79
40.99
36.40
33.03
30.18
26.69
21.27
12.91
1.18
-13.64
-30.83
-49.43
-68.57
-87.59
-105.81
-122.26
-135.57
-143.91
-145.46
-138.83
-123.61
-100.50
-71.20
-38.02
-3.41
30.42
61.72
89.23
112.16
130.22
143.56
152.75
158.58
161.82
163.05
162.58
160.55
157.12
152.51
147.02
140.98
134.57
127.72
120.11
111.14
100.05
86.23
69.71
51.57
34.12
20.30
12.71
12.42
18.50
28.46
39.44
49.46
58.04
65.87
73.83
82.11
89.97
96.20
99.86
100.81
99.61
96.91
92.87
86.81
77.59
64.08
45.83
23.30
-2.09
-28.45
-53.87
-76.91
-96.81
-113.45
-127.18
-138.60
-148.59
-158.44
-169.73
-183.91
-201.44
-221.02
-239.22
-251.32
-252.79
-240.97
-216.18
-181.53
-141.79
-101.75
-64.94
-33.16
-6.84
14.26
30.55
42.35
50.17
54.94
58.04
61.07
65.29
71.10
77.71
83.41
86.24
84.95
79.74
72.15
64.26
57.50
51.76
45.41
36.16
22.36
3.88
-17.82
-40.38
-61.43
-79.14
-92.26
-99.83
-100.94
-94.96
-81.90
-62.86
-39.91
-15.73
7.12
26.66
41.78
52.18
58.08
60.01
58.48
53.90
46.62
37.03
25.84
14.14
3.27
-5.49
-11.30
-13.96
-13.71
-11.02
-6.42
-0.78
4.22
5.77
0.45
-14.34
-38.50
-68.16
-96.26
-114.91
-118.52
-106.10
-81.46
-51.14
-21.35
4.47
26.21
45.73
64.62
82.61
97.47
106.39
107.70
102.07
92.33
82.26
75.13
72.67
75.01
81.19
89.71
98.59
105.05
105.41
95.81
73.76
39.74
-2.25
-45.76
-84.15
-112.85
-130.35
-137.57
-136.26
-127.62
-112.16
-90.59
-65.01
-39.07
-16.94
-1.64
6.19
8.29
7.68
6.97
7.30
8.17
8.12
5.85
1.02
-5.70
-13.05
-19.94
-25.96
-31.43
-36.99
-43.05
-49.39
-55.18
-59.34
-61.07
-60.29
-57.75
-54.78
-52.80
-52.78
-54.83
-58.11
-60.96
-61.56
-58.45
-51.09
-40.08
-26.93
-13.48
-1.35
8.56
16.14
21.82
26.25
29.80
32.29
32.86
30.20
23.23
11.62
-3.69
-20.61
-36.38
-48.48
-55.22
-56.08
-51.44
-42.28
-29.81
-15.48
-0.99
11.62
20.36
23.76
21.55
14.76
5.49
-3.74
-10.83
-14.58
-14.74
-11.83
-6.62
0.02
7.17
13.68
18.28
19.81
17.75
12.55
5.57
-1.46
-7.06
-10.53
-11.99
-11.95
-10.93
-9.15
-6.71
-3.94
-1.45
-0.12
-0.71
-3.59
-8.69
-15.75
-24.42
-34.21
-44.17
-52.69
-57.54
-56.37
-47.42
-30.20
-5.72
23.59
54.18
81.93
102.87
114.05
114.48
105.55
90.78
74.69
61.15
52.21
47.85
46.66
47.04
47.99
49.29
50.97
52.76
53.90
53.42
50.71
45.86
39.66
33.41
28.48
26.05
26.73
30.12
34.74
38.21
38.08
32.96
23.30
11.42
0.60
-6.18
-7.42
-3.46
4.01
12.77
20.96
27.51
32.18
35.26
37.25
38.61
39.54
39.94
39.49
37.88
35.20
32.03
29.56
29.24
32.39
39.60
50.28
62.21
71.67
74.01
64.87
41.60
4.66
-41.83
-90.60
-132.90
-160.90
-169.93
-159.79
-134.57
-101.07
-66.56
-36.77
-14.81
-1.33
4.53
4.09
-1.54
-11.27
-23.68
-36.78
-48.38
-56.80
-61.60
-63.63
-64.58
-66.06
-68.87
-72.72
-76.55
-79.09
-79.31
-76.59
-70.62
-61.31
-48.73
-33.22
-15.43
3.69
23.01
41.32
57.44
70.31
79.04
83.20
82.96
79.18
73.26
66.77
61.10
57.13
55.18
54.98
55.71
56.07
54.46
49.24
39.24
24.18
4.89
-16.84
-38.81
-58.97
-75.77
-88.10
-95.04
-95.56
-88.63
-73.69
-51.16
-22.85
8.36
39.10
66.26
87.47
101.20
106.71
103.96
93.77
77.87
58.71
38.90
20.54
4.76
-8.12
-18.07
-24.68
-26.92
-23.55
-14.07
0.38
16.83
31.04
38.82
37.27
25.44
4.36
-23.43
-54.46
-84.49
-108.80
-122.61
-122.07
-105.51
-74.42
-33.42
10.90
51.87
84.52
106.47
117.67
119.52
113.87
102.53
87.19
69.56
51.19
33.25
16.18
-0.33
-16.94
-34.14
-51.67
-68.24
-81.75
-89.81
-90.67
-84.02
-71.53
-56.55
-43.15
-34.55
-31.93
-33.93
-37.33
-38.50
-35.00
-26.36
-13.92
0.14
13.90
26.22
36.67
44.92
50.39
52.23
49.85
43.57
34.82
25.65
17.92
12.42
8.49
4.41
-1.58
-10.35
-21.24
-32.30
-41.14
-45.98
-46.18
-42.24
-35.30
-26.71
-17.80
-9.96
-4.55
-2.28
-2.56
-3.05
-0.18
9.39
26.95
50.72
76.33
98.57
113.74
120.97
122.11
120.17
117.51
114.75
110.86
104.29
94.03
80.29
64.37
47.86
32.03
17.49
4.26
-7.85
-18.94
-29.04
-38.25
-46.82
-55.15
-63.49
-71.68
-79.10
-84.87
-88.22
-88.80
-86.78
-82.68
-77.13
-70.68
-63.70
-56.48
-49.35
-42.71
-37.08
-32.91
-30.42
-29.48
-29.54
-29.81
-29.56
-28.39
-26.37
-23.92
-21.59
-19.95
-19.47
-20.39
-22.65
-25.58
-27.63
-26.55
-20.00
-6.53
13.47
37.39
60.87
79.00
87.72
85.06
71.62
50.26
25.22
0.82
-19.57
-34.18
-42.85
-46.58
-46.78
-44.64
-40.89
-36.03
-30.64
-25.65
-22.36
-22.05
-25.54
-32.85
-43.18
-55.10
-66.89
-76.83
-83.49
-85.89
-83.59
-76.78
-66.19
-52.93
-38.30
-23.52
-9.63
2.61
12.72
20.50
26.01
29.51
31.40
32.18
32.33
32.29
32.29
32.35
32.08
30.77
27.56
21.57
12.14
-0.98
-17.56
-36.73
-56.86
-75.65
-90.34
-98.33
-97.94
-88.97
-72.83
-52.20
-30.21
-9.59
7.83
21.25
30.67
36.45
39.03
38.78
36.07
31.37
25.30
18.62
12.11
6.36
1.67
-2.06
-5.15
-7.94
-10.64
-13.19
-15.40
-16.94
-17.42
-16.27
-12.76
-6.14
4.16
18.05
34.85
53.39
72.55
91.66
110.43
128.44
144.46
155.99
159.64
152.10
131.41
98.03
55.10
7.93
-37.26
-74.79
-100.75
-113.79
-115.17
-108.13
-96.92
-85.61
-77.37
-73.88
-75.28
-80.37
-86.75
-91.36
-90.96
-83.11
-66.93
-43.67
-16.62
9.65
30.60
42.96
45.73
40.23
29.61
17.58
7.28
0.37
-3.20
-4.73
-5.98
-8.46
-13.01
-19.86
-28.77
-39.27
-50.69
-62.35
-73.74
-84.72
-95.64
-106.79
-117.69
-126.66
-130.85
-127.28
-114.02
-91.32
-61.55
-28.40
4.35
33.86
58.47
77.33
89.98
96.05
95.59
89.28
78.64
65.70
52.48
40.43
30.23
22.02
15.67
11.20
8.81
8.73
10.73
13.92
16.71
17.34
14.64
8.74
1.37
-4.37
-4.92
2.64
19.57
44.84
75.09
105.20
129.29
142.10
140.24
123.11
93.01
54.67
14.05
-22.88
-51.38
-68.62
-73.87
-68.39
-54.98
-37.31
-19.24
-4.03
6.22
10.74
10.02
5.34
-1.73
-9.78
-17.61
-24.30
-29.06
-31.10
-29.60
-23.74
-12.87
3.26
24.16
48.29
73.08
95.18
111.22
118.55
115.89
103.52
83.12
57.40
29.64
3.21
-18.85
-34.34
-42.47
-43.94
-40.75
-35.41
-30.13
-26.12
-23.55
-21.99
-21.00
-20.74
-21.98
-25.67
-32.22
-40.91
-49.66
-55.47
-55.35
-47.33
-31.18
-8.47
18.00
45.10
70.16
91.54
108.73
122.14
132.71
141.27
147.97
151.85
150.88
142.59
124.90
97.13
60.46
17.99
-25.79
-65.75
-97.15
-116.52
-122.57
-116.58
-102.29
-85.02
-70.31
-62.39
-63.02
-71.25
-83.94
-96.86
-105.91
-108.20
-102.54
-89.41
-70.71
-49.08
-27.32
-7.83
7.67
18.42
24.58
27.14
27.59
27.45
27.80
29.09
31.07
33.15
34.86
35.99
36.51
36.33
35.07
32.08
26.79
19.08
9.31
-1.91
-14.27
-28.07
-44.10
-63.05
-84.74
-107.60
-128.81
-145.00
-153.15
-151.46
-139.75
-119.34
-92.69
-62.85
-32.84
-5.24
18.15
36.47
49.66
58.41
63.81
67.23
70.10
73.79
79.28
86.93
96.34
106.29
115.13
121.30
123.97
123.41
120.87
118.12
116.67
117.16
119.26
122.10
124.99
127.96
131.57
136.14
140.90
143.74
141.89
133.20
117.25
95.61
70.96
45.86
21.69
-1.30
-23.05
-42.73
-58.36
-67.53
-68.75
-62.57
-51.66
-39.84
-30.39
-24.79
-22.41
-21.28
-19.48
-16.34
-12.75
-10.63
-11.77
-16.95
-25.78
-37.06
-49.43
-61.86
-73.66
-84.32
-93.34
-100.27
-104.79
-106.70
-105.69
-101.05
-91.66
-76.35
-54.63
-27.36
2.99
32.65
57.46
73.97
80.40
76.94
65.57
49.30
31.25
14.09
-0.21
-10.33
-15.42
-15.36
-10.98
-4.22
2.12
5.35
3.81
-2.37
-11.48
-21.14
-29.54
-36.35
-42.86
-51.16
-62.95
-78.37
-95.48
-110.72
-119.99
-120.11
-109.95
-90.77
-65.69
-38.50
-12.51
10.27
29.37
45.57
60.39
75.36
91.29
107.29
120.54
126.72
121.43
102.17
69.77
28.70
-14.16
-51.55
-78.00
-90.99
-91.06
-80.90
-64.22
-44.85
-26.15
-10.80
-0.70
3.13
0.63
-7.22
-18.66
-31.51
-43.79
-54.25
-62.58
-69.09
-74.03
-76.89
-76.12
-69.68
-55.89
-34.53
-7.23
22.83
51.77
76.11
93.45
102.89
104.91
101.13
93.90
85.76
78.83
74.35
72.21
70.89
67.90
60.53
46.74
25.95
-0.60
-30.20
-59.32
-84.57
-103.45
-114.60
-117.69
-113.14
-101.88
-85.32
-65.29
-43.75
-22.32
-1.94
17.25
35.35
51.98
65.76
74.58
76.59
71.27
60.18
46.62
34.45
26.55
23.90
25.42
28.73
31.40
31.85
29.90
26.46
23.19
21.76
23.23
27.52
32.89
35.91
31.99
16.50
-13.45
-57.49
-111.22
-166.84
-215.07
-247.90
-260.87
-254.22
-232.20
-201.12
-167.09
-134.35
-104.82
-78.76
-55.86
-36.01
-19.45
-6.36
3.67
11.66
18.70
25.34
31.11
34.68
34.55
29.87
20.93
8.96
-4.53
-18.70
-33.87
-51.39
-72.82
-98.66
-127.35
-154.96
-176.12
-185.63
-180.27
-160.05
-128.14
-89.78
-50.52
-14.59
15.80
40.28
59.54
74.48
85.79
93.96
99.51
103.12
105.47
107.04
108.03
108.50
108.67
109.03
110.29
112.76
116.05
118.91
119.67
116.98
110.28
99.94
86.87
72.13
56.59
41.19
27.26
16.63
11.32
12.83
21.47
36.33
56.04
79.76
107.61
139.88
175.35
209.90
236.35
246.50
234.34
199.03
145.87
84.61
25.91
-22.30
-56.70
-78.22
-90.00
-95.14
-95.57
-92.11
-85.40
-76.69
-68.00
-61.51
-58.61
-59.24
-61.74
-63.47
-61.91
-55.74
-45.37
-32.97
-21.58
-14.01
-11.87
-15.22
-22.94
-33.51
-45.82
-59.45
-74.46
-90.79
-107.77
-124.05
-137.92
-147.80
-152.63
-151.95
-145.83
-134.77
-119.72
-102.28
-84.68
-69.28
-58.00
-51.59
-49.57
-50.59
-53.14
-56.09
-58.58
-59.74
-58.23
-52.36
-40.79
-23.26
-1.09
23.20
46.77
67.47
84.45
98.09
109.36
119.19
127.97
135.53
141.47
145.57
148.10
149.81
151.71
154.55
158.56
163.34
168.16
172.41
175.73
177.90
178.27
175.58
168.51
156.44
140.18
121.47
101.89
81.67
59.58
34.16
5.62
-23.15
-47.10
-61.31
-63.40
-54.80
-39.85
-23.60
-9.49
1.57
10.49
18.51
25.95
32.06
35.72
36.34
34.39
31.15
28.03
25.86
24.31
22.03
17.12
7.90
-6.54
-25.94
-49.17
-74.57
-100.33
-124.73
-146.04
-162.54
-172.51
-174.63
-168.34
-154.24
-134.07
-110.47
-86.41
-64.45
-46.28
-32.39
-22.17
-14.40
-7.85
-1.82
3.62
7.77
9.89
9.74
7.74
4.89
2.19
0.22
-1.09
-2.29
-4.21
-7.58
-12.88
-20.33
-29.65
-39.96
-49.64
-56.47
-58.08
-52.70
-39.78
-20.29
3.49
28.68
52.55
73.22
89.93
102.91
112.87
120.45
125.78
128.45
127.73
122.92
113.73
100.30
83.32
63.94
43.76
24.67
8.52
-3.35
-10.71
-14.60
-17.11
-20.65
-26.96
-36.23
-46.94
-56.24
-61.00
-58.86
-49.00
-32.20
-10.48
13.84
38.75
62.87
85.28
105.14
121.50
133.29
139.47
139.04
131.05
114.70
89.95
58.16
22.56
-12.21
-41.35
-61.50
-71.85
-74.05
-71.14
-66.00
-60.30
-54.45
-48.31
-42.11
-36.73
-33.15
-31.62
-30.96
-28.77
-22.35
-9.90
8.58
31.25
55.14
77.46
96.35
111.18
122.01
128.96
131.77
129.98
123.20
111.50
95.37
75.39
52.25
26.85
0.57
-24.59
-46.38
-63.00
-73.76
-79.21
-80.82
-80.06
-77.96
-75.02
-71.73
-68.89
-67.49
-68.12
-70.17
-71.65
-69.65
-61.52
-46.05
-24.13
1.44
26.91
48.75
64.58
73.36
75.25
71.03
61.86
49.18
34.60
19.70
5.71
-6.95
-18.66
-30.15
-41.97
-53.87
-64.88
-73.83
-80.09
-84.11
-87.19
-90.81
-95.73
-101.45
-106.28
-108.07
-105.06
-96.54
-82.85
-65.06
-44.43
-22.06
1.26
24.86
47.99
69.64
88.60
103.69
114.12
119.88
121.91
121.98
122.24
124.44
129.25
135.73
141.44
143.02
137.21
121.83
96.46
62.53
23.01
-18.26
-57.46
-91.66
-119.43
-140.85
-156.92
-168.66
-176.21
-178.73
-174.81
-163.58
-145.56
-122.80
-98.33
-75.04
-54.83
-38.29
-25.20
-15.05
-7.59
-2.89
-1.01
-1.78
-4.57
-8.41
-12.18
-14.94
-16.33
-16.90
-18.08
-21.74
-29.31
-40.97
-55.23
-69.33
-80.52
-87.22
-89.64
-89.28
-87.68
-85.28
-80.99
-72.86
-59.35
-40.35
-17.35
7.26
31.17
52.91
71.94
88.14
101.16
110.26
114.48
113.24
106.96
97.20
86.28
76.53
69.31
64.39
59.96
53.40
42.42
26.00
4.72
-19.57
-44.56
-68.22
-89.20
-106.71
-120.27
-129.41
-133.65
-132.62
-126.34
-115.32
-100.50
-83.09
-64.28
-45.07
-26.20
-8.15
8.70
23.89
36.84
46.92
53.71
57.28
58.23
57.67
56.83
56.60
57.13
57.75
57.16
54.01
47.39
37.03
23.14
6.02
-14.20
-37.42
-63.08
-89.68
-114.64
-134.75
-147.00
-149.50
-141.95
-125.52
-102.40
-75.15
-46.20
-17.51
9.44
33.63
54.43
71.46
84.68
94.23
100.50
103.90
104.72
103.04
98.71
91.67
82.20
71.16
59.92
50.09
43.01
39.30
38.71
39.98
40.97
38.93
31.16
15.87
-6.72
-33.78
-60.21
-80.01
-88.27
-82.84
-65.00
-38.71
-9.07
19.42
43.75
62.50
75.27
82.06
83.09
78.96
70.89
60.63
50.07
40.64
32.92
26.57
20.80
14.87
8.67
2.80
-1.85
-4.61
-5.72
-6.42
-8.76
-14.86
-26.15
-42.67
-62.79
-83.48
-100.91
-111.43
-112.57
-103.73
-86.35
-63.41
-38.63
-15.35
4.03
18.41
27.76
32.80
34.58
34.32
33.25
32.45
32.70
34.33
37.23
40.99
45.08
49.03
52.30
54.25
54.23
51.72
46.69
39.72
31.86
24.26
17.82
12.93
9.66
7.76
6.80
6.12
4.92
2.64
-0.52
-3.22
-3.25
1.57
12.13
27.12
43.18
56.04
62.16
60.13
51.05
37.83
23.88
11.91
3.33
-1.73
-3.76
-3.47
-1.32
2.31
6.92
11.62
15.18
16.07
13.03
5.32
-6.82
-21.95
-37.53
-50.32
-57.13
-55.77
-45.86
-29.10
-8.91
10.63
25.98
35.10
37.78
35.26
29.33
21.56
12.88
3.66
-5.89
-15.38
-24.06
-31.08
-35.77
-37.93
-37.90
-36.38
-34.15
-31.79
-29.58
-27.63
-26.15
-25.76
-27.54
-32.66
-41.66
-53.68
-66.15
-75.15
-76.51
-67.28
-46.91
-17.53
16.56
49.92
77.14
93.71
96.80
85.85
62.99
32.96
2.37
-21.98
-34.86
-34.24
-21.62
-1.26
21.44
41.58
55.82
62.61
61.80
54.11
40.76
23.29
3.43
-17.09
-36.74
-54.37
-69.15
-80.35
-87.07
-88.08
-82.11
-68.32
-46.98
-19.74
10.30
39.25
63.17
78.93
84.66
80.01
66.10
45.22
20.52
-4.47
-26.40
-42.77
-52.24
-54.84
-51.82
-45.15
-36.98
-29.28
-23.35
-19.86
-18.72
-19.24
-20.45
-21.44
-21.76
-21.63
-21.80
-23.02
-25.49
-28.32
-29.56
-26.70
-17.44
-0.61
23.39
52.65
84.01
113.48
136.56
148.53
145.31
124.78
88.26
41.23
-7.45
-47.95
-72.65
-78.63
-68.41
-48.47
-26.47
-8.64
1.77
4.28
0.09
-9.18
-22.12
-37.50
-53.99
-70.06
-84.20
-95.33
-103.00
-107.22
-107.97
-104.71
-96.35
-81.60
-59.74
-31.35
1.39
35.10
65.99
90.73
107.08
113.98
111.52
100.68
83.31
62.07
40.17
20.71
5.98
-3.22
-7.65
-9.11
-9.61
-10.47
-12.02
-13.68
-14.64
-14.35
-12.83
-10.64
-8.59
-7.49
-7.92
-10.26
-14.42
-19.80
-25.01
-28.02
-26.37
-17.96
-1.77
21.63
49.90
79.32
105.39
123.54
129.84
121.76
99.06
64.40
23.32
-16.66
-47.96
-65.17
-66.73
-55.30
-36.65
-17.47
-3.04
4.11
4.32
-0.16
-6.65
-13.05
-18.28
-22.07
-24.52
-25.76
-25.77
-24.45
-21.67
-17.11
-10.24
-0.43
12.80
29.23
47.73
66.13
81.70
91.81
94.48
88.85
75.19
54.90
30.28
4.25
-20.03
-39.76
-53.05
-59.31
-59.35
-55.02
-48.62
-42.22
-37.16
-33.86
-31.92
-30.46
-28.55
-25.59
-21.59
-17.14
-13.19
-10.50
-9.17
-8.33
-6.34
-1.20
8.78
24.49
45.78
71.40
99.08
125.59
146.81
158.01
154.62
133.67
95.35
44.13
-11.69
-62.00
-98.03
-115.24
-114.55
-101.49
-83.54
-67.19
-55.99
-50.43
-49.12
-50.36
-53.18
-57.32
-62.60
-68.21
-72.65
-74.04
-70.92
-62.71
-49.84
-33.54
-15.26
3.76
22.74
41.17
58.50
73.73
85.32
91.29
89.88
80.22
62.90
40.20
15.49
-7.63
-26.48
-40.03
-48.87
-54.57
-58.66
-61.87
-63.97
-64.34
-62.65
-59.47
-56.14
-54.17
-54.32
-56.01
-57.33
-55.76
-49.07
-36.34
-18.22
3.27
25.43
45.96
63.56
78.19
90.72
102.20
113.15
123.16
130.63
132.90
126.84
109.83
81.11
42.96
0.83
-37.77
-65.64
-78.39
-76.01
-62.70
-45.05
-29.63
-20.92
-20.59
-27.89
-40.51
-55.40
-69.13
-78.19
-79.42
-70.91
-52.54
-26.41
3.77
33.68
59.55
79.09
91.62
97.75
98.72
95.80
89.90
81.44
70.33
56.13
38.39
17.16
-6.59
-30.84
-52.83
-70.00
-80.92
-85.91
-86.97
-86.90
-88.23
-92.27
-98.70
-105.85
-111.30
-112.56
-107.72
-95.82
-76.96
-52.29
-23.76
6.24
35.21
60.80
81.15
95.08
102.37
103.78
101.00
96.05
90.76
86.21
82.55
79.12
74.80
68.34
58.75
45.58
29.17
10.74
-7.77
-24.29
-37.29
-46.50
-52.92
-58.35
-64.31
-71.02
-76.93
-79.32
-75.41
-63.70
-44.75
-21.07
3.78
26.40
44.49
57.18
64.67
67.61
66.57
61.94
54.12
43.90
32.68
22.25
14.24
9.41
7.08
5.28
1.42
-6.63
-19.56
-36.50
-55.39
-74.05
-90.87
-104.91
-115.39
-121.22
-120.90
-113.11
-97.69
-76.08
-51.10
-25.94
-3.01
16.72
33.56
48.29
61.32
72.27
80.20
84.25
84.35
81.46
77.36
74.06
73.14
75.27
80.04
85.99
90.77
91.39
84.78
68.67
42.65
8.92
-27.86
-61.79
-87.55
-102.20
-105.83
-100.93
-90.80
-77.98
-63.52
-47.33
-29.30
-10.04
8.85
25.40
38.11
46.47
51.00
52.72
52.59
51.18
48.69
45.26
41.34
37.67
35.14
34.34
35.11
36.21
35.56
30.67
19.61
1.79
-21.66
-48.22
-74.97
-99.48
-120.24
-136.43
-147.22
-151.38
-147.48
-134.77
-114.06
-88.03
-60.46
-34.88
-13.22
4.57
19.92
34.40
48.61
61.92
72.94
80.52
84.48
85.81
86.25
87.50
90.62
95.59
101.34
105.74
105.90
98.61
81.28
53.03
15.56
-26.71
-67.64
-101.18
-123.14
-132.09
-129.30
-117.64
-100.41
-80.51
-60.17
-41.03
-24.23
-10.32
0.89
10.16
18.49
26.57
34.29
40.86
45.12
46.15
43.71
38.45
31.71
25.14
20.10
17.22
16.15
15.64
13.84
8.80
-1.08
-16.52
-36.96
-60.42
-83.69
-102.86
-114.34
-115.75
-106.80
-89.32
-66.74
-42.98
-21.28
-3.38
10.66
21.97
32.01
41.74
51.22
59.66
65.98
69.42
70.04
68.84
67.37
67.22
69.41
74.10
80.56
87.30
92.05
91.89
83.56
64.39
33.66
-6.37
-50.34
-91.17
-122.34
-140.16
-144.70
-139.05
-127.36
-112.79
-96.60
-78.55
-58.28
-36.40
-14.77
4.26
18.97
28.93
34.96
38.41
40.29
40.83
39.54
35.93
30.18
23.44
17.60
14.45
14.79
17.82
21.26
22.13
17.87
7.22
-9.45
-30.45
-53.50
-76.34
-96.91
-113.21
-123.24
-125.14
-117.85
-101.78
-79.02
-52.88
-26.87
-3.56
16.03
32.28
46.33
59.26
71.64
83.57
94.87
105.18
114.21
121.57
127.02
130.52
132.47
133.60
134.77
136.48
138.47
139.48
137.33
129.20
112.55
85.97
50.18
8.36
-34.30
-71.84
-99.28
-113.86
-115.61
-106.77
-90.60
-70.16
-47.76
-24.94
-3.04
16.51
32.15
42.70
47.92
48.62
46.51
43.48
40.89
39.17
37.80
35.83
32.34
26.96
19.85
11.54
2.63
-6.47
-15.55
-24.79
-34.79
-46.55
-61.18
-79.20
-99.76
-120.23
-136.60
-144.66
-141.66
-127.41
-104.48
-77.13
-49.66
-24.99
-4.14
13.24
27.98
40.47
50.50
57.66
61.91
63.84
64.47
64.73
64.88
64.44
62.40
57.84
50.50
41.03
30.85
21.66
14.91
11.21
10.13
10.21
9.38
5.57
-2.79
-16.22
-33.97
-53.94
-72.87
-86.92
-92.42
-87.04
-70.67
-45.77
-16.90
10.67
32.49
46.17
51.72
50.84
45.89
38.89
31.20
23.71
17.22
12.57
10.41
10.84
13.25
16.40
19.07
20.50
20.72
20.34
20.03
19.90
19.21
16.65
10.96
1.68
-10.47
-23.68
-35.56
-43.94
-47.40
-45.46
-38.50
-27.54
-13.99
0.42
13.95
24.99
32.40
35.84
35.76
33.32
29.94
26.90
25.08
24.81
25.97
28.23
31.26
34.78
38.49
41.87
44.14
44.42
42.09
37.15
30.41
23.28
17.30
13.61
12.59
13.71
15.57
16.14
13.29
5.51
-7.18
-22.70
-37.08
-45.70
-45.11
-34.70
-17.32
1.73
16.71
23.63
21.46
11.87
-2.04
-17.40
-32.39
-46.27
-58.70
-69.03
-76.22
-79.29
-78.03
-73.45
-67.68
-63.24
-62.14
-64.98
-70.69
-76.75
-79.91
-77.25
-67.16
-49.93
-27.81
-4.39
16.42
31.61
39.86
41.85
39.68
35.88
32.41
30.06
28.58
27.19
25.31
22.81
20.06
17.56
15.64
14.43
14.00
14.54
16.45
19.97
24.89
30.20
34.11
34.61
30.14
20.42
6.96
-7.02
-17.32
-20.03
-12.87
3.92
27.29
52.04
71.92
81.20
76.43
57.63
28.85
-2.77
-29.16
-43.87
-44.33
-32.49
-13.63
5.89
21.01
29.24
30.44
25.77
16.42
3.25
-12.97
-30.95
-48.77
-64.19
-75.61
-82.52
-85.73
-86.61
-86.23
-84.62
-80.70
-72.77
-59.60
-41.11
-18.67
5.24
27.78
46.48
59.57
66.29
66.69
61.77
53.18
42.98
33.23
25.38
19.96
16.54
13.98
11.09
7.18
2.30
-2.79
-7.10
-9.92
-11.16
-11.41
-11.57
-12.46
-14.31
-16.56
-18.05
-17.46
-13.68
-6.08
5.57
21.19
40.42
62.46
85.83
108.20
126.47
137.05
136.46
122.16
93.61
53.10
6.02
-40.01
-76.95
-98.73
-103.13
-92.39
-72.15
-49.28
-29.53
-16.18
-9.98
-10.16
-15.72
-26.10
-41.03
-59.73
-80.16
-98.90
-111.79
-115.27
-107.57
-89.43
-63.69
-34.31
-5.14
20.75
41.28
55.01
61.04
59.27
50.85
38.26
24.78
13.32
5.48
1.08
-1.26
-3.06
-5.08
-7.03
-8.04
-7.47
-5.39
-2.48
0.38
2.65
4.23
5.19
5.61
5.53
5.31
5.97
9.34
17.72
33.07
56.27
86.50
121.32
157.19
190.40
217.72
236.79
246.05
244.69
232.64
210.81
181.24
146.90
110.95
75.74
42.03
9.25
-23.58
-56.49
-87.87
-114.82
-134.50
-145.68
-149.42
-148.72
-147.20
-147.53
-150.53
-155.22
-159.41
-160.62
-156.78
-146.50
-129.24
-105.31
-75.93
-43.03
-9.21
22.62
49.43
68.58
78.25
78.07
69.40
55.21
39.43
25.82
16.93
13.43
14.32
17.58
21.20
23.88
25.18
25.09
23.50
19.75
12.70
1.15
-15.60
-37.23
-62.15
-87.69
-110.53
-127.46
-136.02
-135.04
-124.83
-106.90
-83.61
-57.61
-31.38
-7.05
13.82
30.25
41.88
48.99
52.31
52.89
51.83
50.08
48.40
47.29
47.06
47.66
48.68
49.33
48.44
44.68
36.73
23.65
5.30
-17.46
-42.73
-67.86
-89.87
-106.10
-114.60
-114.49
-106.04
-90.61
-70.27
-47.47
-24.57
-3.55
14.24
28.08
37.84
43.83
46.61
46.73
44.59
40.31
33.89
25.44
15.56
5.39
-3.66
-10.43
-14.59
-16.75
-18.21
-20.43
-24.55
-31.16
-40.41
-51.98
-65.11
-78.45
-89.97
-97.28
-98.21
-91.50
-77.41
-57.63
-34.91
-12.22
7.95
23.93
35.01
41.25
43.19
41.67
37.66
32.14
26.05
20.17
15.12
11.27
8.67
7.07
5.88
4.41
1.98
-1.94
-7.72
-15.50
-25.22
-36.25
-47.20
-55.94
-59.98
-57.30
-47.20
-30.73
-10.48
10.24
28.49
42.31
51.11
55.29
55.78
53.62
49.75
44.90
39.55
33.93
28.03
21.75
15.09
8.22
1.55
-4.46
-9.49
-13.54
-16.95
-20.39
-24.65
-30.35
-37.59
-45.70
-53.15
-57.83
-57.60
-51.10
-38.26
-20.58
-0.68
18.47
34.43
45.80
52.33
54.61
53.57
50.09
44.88
38.44
31.24
23.73
16.37
9.55
3.55
-1.54
-5.76
-9.28
-12.45
-15.73
-19.72
-25.00
-31.87
-40.07
-48.52
-55.47
-58.77
-56.63
-48.21
-34.06
-15.96
3.61
22.20
37.96
49.97
58.03
62.31
63.16
60.94
56.12
49.39
41.60
33.60
26.11
19.57
14.15
9.84
6.52
3.85
1.39
-1.53
-5.67
-11.65
-19.67
-29.26
-39.07
-47.06
-50.97
-48.92
-40.13
-25.31
-6.53
13.31
31.38
45.60
55.09
60.00
61.14
59.42
55.58
50.16
43.58
36.32
28.93
21.93
15.76
10.62
6.44
2.92
-0.34
-3.73
-7.58
-12.15
-17.58
-23.99
-31.22
-38.70
-45.26
-49.19
-48.76
-42.77
-31.25
-15.60
1.65
17.67
30.14
37.78
40.47
38.93
34.23
27.44
19.46
11.12
3.14
-3.81
-9.20
-12.73
-14.44
-14.69
-14.06
-13.15
-12.53
-12.63
-13.79
-16.40
-20.80
-27.06
-34.64
-42.12
-47.38
-48.16
-42.91
-31.48
-15.26
3.22
21.10
36.02
46.59
52.39
53.73
51.24
45.69
37.90
28.75
19.21
10.25
2.68
-3.04
-6.85
-9.08
-10.35
-11.31
-12.55
-14.53
-17.65
-22.21
-28.30
-35.61
-43.12
-49.15
-51.67
-48.89
-39.96
-25.27
-6.51
13.81
32.99
48.86
60.07
66.22
67.62
65.00
59.24
51.25
41.94
32.13
22.74
14.53
8.08
3.63
0.99
-0.38
-1.21
-2.23
-4.08
-7.24
-12.10
-18.78
-26.93
-35.47
-42.55
-45.94
-43.72
-34.98
-20.32
-1.70
18.15
36.50
51.22
61.14
65.91
65.95
62.12
55.67
47.97
40.33
33.73
28.57
24.81
22.00
19.71
17.62
15.62
13.70
11.75
9.46
6.23
1.32
-5.91
-15.60
-27.00
-38.37
-47.19
-50.89
-47.61
-36.89
-19.99
0.49
21.44
39.95
54.00
62.58
65.62
63.69
57.79
49.19
39.29
29.39
20.53
13.24
7.67
3.58
0.65
-1.44
-2.92
-4.01
-4.99
-6.25
-8.30
-11.63
-16.40
-22.17
-27.81
-31.59
-31.67
-26.85
-17.01
-3.28
12.32
27.51
40.45
50.11
56.30
59.39
60.07
59.01
56.79
53.72
49.81
44.81
38.52
31.04
22.93
15.09
8.34
2.98
-1.33
-5.47
-10.36
-16.67
-24.63
-34.01
-44.20
-54.29
-63.04
-69.06
-71.04
-68.27
-60.93
-50.19
-37.92
-26.12
-16.36
-9.49
-5.54
-3.93
-3.69
-3.84
-3.60
-2.57
-0.78
1.49
3.86
6.05
7.90
9.42
10.61
11.46
11.82
11.37
9.69
6.38
1.38
-4.84
-11.21
-16.24
-18.48
-17.07
-12.08
-4.60
3.54
10.25
13.74
12.76
6.80
-3.87
-18.34
-35.28
-53.18
-70.69
-86.84
-101.07
-113.03
-122.35
-128.54
-131.11
-129.80
-124.85
-116.95
-107.11
-96.23
-84.66
-72.11
-57.66
-40.15
-18.51
7.79
38.54
72.82
109.08
145.42
179.88
210.81
237.07
258.22
274.34
285.76
292.66
294.67
290.95
280.64
263.64
241.01
214.94
187.78
161.03
134.68
107.44
77.82
45.35
11.11
-22.68
-53.79
-80.91
-104.02
-123.69
-140.27
-153.45
-162.57
-167.40
-168.61
-167.48
-165.10
-161.57
-156.02
-147.44
-135.83
-122.83
-111.32
-104.14
-102.63
-106.00
-111.80
-117.01
-119.38
-118.06
-113.43
-106.62
-98.82
-91.16
-84.60
-79.96
-77.76
-77.80
-79.00
-79.45
-77.14
-70.71
-60.10
-46.63
-32.56
-20.34
-11.88
-8.19
-9.42
-15.08
-24.26
-35.81
-48.37
-60.39
-70.35
-76.95
-79.40
-77.55
-71.99
-63.89
-54.80
-46.38
-40.13
-37.01
-37.02
-39.20
-41.64
-42.04
-38.50
-29.98
-16.72
0.02
18.46
36.80
53.57
67.72
78.53
85.46
88.20
86.80
81.81
74.25
65.41
56.55
48.63
42.16
37.19
33.39
30.23
27.09
23.34
18.42
11.94
3.97
-4.75
-12.79
-18.21
-19.13
-14.39
-4.02
10.74
27.78
44.79
59.89
71.93
80.55
85.87
88.27
88.15
85.88
81.86
76.57
70.51
64.12
57.72
51.43
45.27
39.14
32.99
26.72
20.27
13.52
6.48
-0.57
-6.81
-10.92
-11.16
-6.03
5.25
22.23
43.24
65.72
86.79
103.90
115.35
120.46
119.48
113.33
103.17
90.10
74.95
58.30
40.63
22.53
4.82
-11.53
-25.63
-36.97
-45.50
-51.57
-55.80
-58.92
-61.85
-65.82
-72.35
-82.66
-97.04
-114.11
-130.77
-142.93
-146.85
-140.40
-123.76
-99.09
-69.53
-38.27
-7.89
19.52
42.10
58.01
65.83
65.14
57.03
44.07
29.59
16.75
7.55
2.48
0.77
1.09
2.22
3.52
4.99
7.02
9.90
13.57
17.48
20.80
22.71
22.85
21.64
20.26
20.41
23.76
31.36
43.27
58.50
75.34
91.87
106.32
117.47
124.56
127.38
126.25
122.03
115.94
109.36
103.47
98.89
95.68
93.41
91.45
89.18
85.96
81.20
74.33
65.02
53.33
39.81
25.25
10.21
-5.34
-21.99
-40.28
-59.92
-79.15
-94.98
-104.05
-104.00
-94.49
-77.38
-56.01
-33.87
-13.61
3.27
15.98
23.88
26.21
22.44
12.96
-0.63
-15.79
-29.96
-41.60
-50.64
-58.13
-65.32
-72.83
-80.29
-86.73
-91.28
-93.74
-94.82
-95.76
-97.80
-101.71
-107.52
-114.43
-120.93
-125.11
-125.00
-119.20
-107.16
-89.45
-67.66
-43.90
-20.30
1.44
20.20
35.47
47.15
55.42
60.71
63.57
64.63
64.44
63.32
61.23
57.82
52.47
44.55
33.64
19.92
4.34
-11.43
-25.29
-35.28
-40.32
-40.54
-37.38
-33.04
-29.79
-29.20
-31.80
-37.14
-44.21
-51.93
-59.61
-67.14
-74.86
-83.33
-92.80
-102.82
-112.06
-118.52
-120.12
-115.46
-104.35
-87.87
-67.98
-46.75
-25.76
-5.82
12.76
29.86
45.34
59.03
71.06
82.05
92.89
104.22
115.78
126.22
133.32
134.97
130.01
118.84
103.25
85.73
68.54
53.18
40.23
29.71
21.42
15.12
10.43
6.70
2.98
-1.84
-8.62
-17.56
-28.08
-38.82
-47.82
-53.02
-52.65
-45.69
-32.15
-13.11
9.43
33.03
55.35
74.58
89.49
99.33
103.45
101.07
91.53
74.78
52.03
25.97
0.46
-20.65
-34.54
-40.41
-39.37
-33.79
-26.13
-18.17
-10.73
-4.07
1.56
5.53
6.95
5.10
0.00
-7.35
-15.20
-21.62
-25.24
-25.80
-24.22
-22.31
-22.04
-24.89
-31.36
-40.88
-51.96
-62.66
-70.99
-75.23
-74.41
-68.49
-58.58
-46.71
-35.26
-26.23
-20.52
-17.69
-16.38
-14.86
-11.65
-5.90
2.34
12.44
23.48
34.40
43.98
50.93
54.37
54.32
52.01
49.28
48.02
49.34
53.16
58.27
62.66
64.73
63.95
60.91
56.28
50.73
44.78
39.11
34.57
31.23
28.99
27.29
25.33
21.08
13.35
3.20
-5.76
-9.04
-5.37
3.80
14.64
23.25
24.78
17.42
3.39
-12.09
-23.92
-32.24
-38.97
-45.87
-51.82
-57.69
-64.23
-72.72
-85.15
-104.37
-135.83
-180.35
-231.96
-277.92
-309.51
-322.12
-316.39
-296.92
-249.27
-174.21
-87.02
-21.11
22.84
49.23
64.72
70.63
67.97
59.07
44.97
29.11
16.29
11.98
13.94
17.94
20.08
19.31
17.30
15.20
15.25
19.66
30.81
45.44
60.47
73.61
84.22
92.99
100.47
108.11
117.74
131.54
147.80
165.79
185.00
205.00
217.95
216.07
197.49
167.99
143.13
124.28
110.06
98.88
87.10
73.42
58.30
43.29
30.12
20.06
12.24
6.84
3.88
2.86
3.29
5.24
8.69
13.06
17.03
18.27
16.14
10.87
3.21
-5.32
-12.54
-16.43
-16.06
-12.11
-6.87
-2.12
0.99
2.11
1.73
0.88
0.59
1.60
4.41
9.19
16.32
25.48
35.14
42.76
45.53
41.54
30.62
14.53
-3.81
-20.95
-34.10
-41.63
-43.14
-39.30
-31.47
-21.49
-11.26
-2.45
3.86
7.38
8.54
8.16
7.03
5.54
3.49
0.04
-6.01
-15.83
-30.17
-48.80
-70.23
-91.67
-109.48
-120.05
-120.81
-111.00
-91.99
-67.06
-40.64
-17.34
-0.87
6.88
6.39
0.40
-6.78
-10.62
-7.93
1.84
16.38
31.31
41.97
45.20
40.52
30.15
17.86
7.59
2.07
2.22
7.26
15.39
24.45
32.66
38.81
42.37
43.38
42.21
39.44
35.62
31.06
25.72
19.18
10.80
0.03
-13.17
-28.00
-42.67
-54.79
-61.95
-62.47
-56.07
-43.97
-28.53
-12.62
1.26
11.53
17.72
20.29
20.30
19.00
17.46
16.39
15.89
15.53
14.37
11.35
5.71
-2.63
-12.94
-23.87
-33.97
-42.18
-48.22
-52.50
-55.80
-58.86
-62.09
-65.59
-69.38
-73.55
-78.42
-84.26
-91.01
-97.92
-103.49
-105.92
-103.61
-95.90
-83.36
-67.56
-50.45
-33.46
-17.02
-0.55
16.77
35.10
53.36
69.52
81.62
88.89
92.29
93.95
95.92
98.88
101.75
102.34
98.58
89.70
76.53
60.87
44.48
28.43
12.96
-1.93
-16.12
-29.20
-40.77
-50.93
-60.43
-70.28
-81.09
-92.39
-102.54
-109.06
-109.66
-103.15
-90.03
-72.37
-53.04
-34.76
-19.23
-6.96
2.52
9.98
15.87
20.13
22.27
21.89
19.05
14.43
9.18
4.46
0.98
-1.23
-2.81
-4.73
-7.86
-12.65
-19.04
-26.54
-34.57
-42.63
-50.50
-58.16
-65.60
-72.73
-79.45
-85.75
-91.78
-97.76
-103.63
-108.69
-111.55
-110.47
-103.95
-91.50
-73.89
-53.02
-31.27
-10.76
7.04
21.47
32.39
39.91
44.25
45.79
45.20
43.45
41.62
40.62
40.85
42.22
44.25
46.35
47.98
48.67
47.85
44.74
38.55
28.77
15.54
-0.17
-16.85
-32.83
-46.88
-58.38
-67.29
-73.79
-77.87
-79.17
-77.06
-71.01
-60.87
-47.21
-31.17
-14.26
2.08
16.80
29.34
39.61
47.62
53.37
56.67
57.29
55.15
50.52
44.06
36.74
29.62
23.55
18.93
15.63
13.16
11.02
8.85
6.52
3.75
-0.03
-5.76
-14.23
-25.56
-38.82
-52.25
-64.06
-73.07
-79.11
-82.67
-84.14
-83.30
-79.37
-71.49
-59.46
-44.01
-26.44
-8.16
9.91
27.35
43.97
59.38
72.88
83.53
90.55
93.59
92.88
89.11
83.23
76.20
68.86
61.83
55.52
50.06
45.37
41.12
36.74
31.54
24.70
15.60
3.81
-10.73
-27.70
-46.45
-66.07
-85.36
-102.73
-116.32
-124.04
-124.21
-116.04
-100.12
-78.47
-54.01
-29.71
-7.79
10.79
26.15
39.01
49.97
59.06
65.79
69.44
69.65
66.83
62.17
57.29
53.69
52.13
52.58
54.34
56.41
57.57
56.23
50.26
37.32
15.78
-14.03
-49.15
-84.44
-114.13
-133.81
-141.64
-138.42
-126.43
-108.06
-84.96
-58.29
-29.42
-0.44
25.98
47.47
62.85
72.51
77.94
80.87
82.45
82.91
81.92
79.15
74.80
69.64
64.67
60.57
57.26
53.92
49.25
41.98
31.32
17.18
0.07
-19.14
-39.51
-60.30
-80.88
-100.57
-118.25
-132.19
-140.22
-140.36
-131.56
-114.41
-91.16
-65.13
-39.48
-16.25
4.28
23.08
41.49
60.21
78.66
95.30
108.44
117.14
121.81
124.04
125.91
129.01
133.76
139.21
143.33
143.57
137.36
122.77
99.17
67.70
31.51
-4.75
-36.09
-58.83
-71.94
-77.35
-79.05
-81.02
-85.39
-91.36
-95.73
-94.67
-85.59
-68.46
-45.53
-20.15
4.75
27.56
47.92
65.91
81.18
92.70
99.21
100.06
95.74
87.87
78.55
69.50
61.49
54.25
46.88
38.41
28.18
16.06
2.54
-11.48
-24.74
-35.99
-44.36
-49.69
-52.65
-54.62
-57.09
-61.13
-66.86
-73.30
-78.63
-80.88
-78.36
-70.20
-56.44
-37.88
-15.83
8.08
32.18
54.84
74.75
90.96
103.02
111.00
115.43
116.94
115.88
112.02
104.45
92.09
74.49
52.57
28.92
7.30
-8.58
-16.41
-16.16
-10.02
-1.39
6.44
11.35
12.59
10.39
5.23
-2.35
-11.48
-20.52
-26.89
-27.67
-20.55
-4.93
17.73
44.40
71.53
96.16
116.42
131.49
140.97
144.58
141.86
132.39
115.84
92.12
61.49
24.64
-17.06
-61.35
-105.24
-145.50
-179.32
-204.98
-221.95
-230.70
-232.12
-227.09
-216.30
-200.41
-180.31
-157.25
-132.70
-108.25
-85.07
-63.86
-44.70
-27.20
-10.58
6.22
24.38
44.85
67.86
92.51
116.81
138.13
154.00
162.88
164.47
159.55
149.41
135.46
119.05
101.50
84.21
68.45
55.06
44.11
34.96
26.59
18.10
9.03
-0.48
-9.96
-18.78
-26.40
-32.50
-37.06
-40.30
-42.45
-43.67
-43.81
-42.46
-39.09
-33.26
-24.74
-13.56
0.13
16.09
33.93
52.82
71.29
87.41
99.06
104.69
104.01
98.37
90.52
83.86
81.19
83.64
90.21
98.29
104.70
107.02
104.22
96.63
85.27
71.26
55.53
38.99
22.56
7.01
-7.41
-21.27
-35.56
-50.98
-66.95
-81.46
-91.81
-96.05
-94.16
-88.18
-81.19
-75.68
-72.45
-70.65
-68.70
-65.55
-61.34
-57.18
-54.32
-53.21
-53.16
-52.72
-50.43
-45.59
-38.60
-30.67
-23.25
-17.33
-13.08
-9.78
-6.18
-1.14
5.78
14.01
22.32
29.57
35.39
40.52
46.38
54.00
63.30
73.09
81.97
89.48
96.39
103.76
111.32
116.61
115.79
105.88
87.19
63.70
41.53
25.63
17.19
13.18
8.44
-1.20
-16.62
-35.31
-53.26
-67.44
-77.25
-84.08
-89.97
-96.05
-101.87
-105.98
-107.09
-105.09
-101.34
-98.08
-97.21
-99.02
-101.80
-102.40
-97.64
-85.72
-67.08
-44.05
-19.68
3.65
24.94
44.33
62.24
78.46
91.86
100.96
104.78
103.41
98.02
90.24
81.40
72.26
63.02
53.70
44.41
35.28
26.34
17.40
8.21
-1.20
-10.39
-18.59
-25.14
-29.93
-33.50
-36.70
-40.13
-43.63
-46.10
-45.88
-41.32
-31.19
-15.13
6.35
31.78
58.88
84.63
105.71
119.20
123.34
118.27
106.23
90.97
76.61
66.32
61.43
61.16
63.23
64.79
63.59
58.54
49.84
38.56
25.95
12.67
-1.64
-18.41
-39.55
-66.49
-99.06
-134.88
-169.46
-197.16
-212.69
-212.52
-195.67
-163.92
-121.29
-73.44
-26.88
12.01
38.32
50.13
49.56
42.40
36.14
37.03
47.60
65.87
86.66
103.96
113.11
111.86
100.32
80.29
54.93
28.40
5.32
-10.21
-15.87
-11.91
-0.83
13.93
29.29
43.14
53.82
59.44
57.63
46.26
24.78
-5.01
-39.13
-72.77
-101.74
-123.57
-137.56
-144.29
-144.75
-139.95
-130.68
-117.66
-101.69
-83.52
-63.76
-42.78
-20.74
2.17
25.58
48.57
69.63
86.66
97.33
99.48
91.64
73.20
44.40
6.31
-39.33
-89.91
-141.71
-189.91
-229.15
-254.48
-262.69
-253.22
-228.35
-192.48
-150.97
-108.74
-69.54
-35.68
-8.11
13.41
30.05
43.49
55.41
66.63
76.63
83.49
84.53
76.99
58.93
29.85
-8.61
-52.38
-95.18
-129.81
-150.25
-153.86
-142.57
-122.30
-100.66
-84.01
-75.24
-73.46
-75.30
-77.07
-76.23
-71.76
-63.41
-51.02
-34.41
-14.02
8.47
30.21
48.03
59.81
65.54
67.43
69.04
73.72
83.26
97.15
112.46
124.43
127.38
116.26
88.51
45.82
-5.25
-54.49
-91.41
-109.23
-107.74
-93.14
-74.92
-61.20
-55.07
-53.81
-51.32
-42.12
-24.54
-1.54
21.16
38.20
47.10
49.10
47.84
47.41
50.34
56.94
65.71
74.57
81.77
86.12
86.30
80.29
65.39
39.65
3.79
-37.60
-76.60
-104.64
-116.01
-110.50
-93.64
-74.14
-60.03
-55.27
-58.70
-65.41
-69.60
-67.25
-57.32
-41.28
-21.69
-0.89
19.51
38.38
54.59
66.83
73.97
75.79
73.59
69.96
67.82
69.18
74.01
79.99
83.14
79.21
65.22
40.79
8.54
-26.43
-57.91
-80.59
-91.83
-92.53
-86.72
-79.72
-75.75
-76.15
-79.00
-80.29
-76.21
-64.91
-47.33
-26.30
-5.01
14.52
31.79
47.37
61.82
74.90
85.66
92.98
96.20
95.41
91.22
84.52
76.32
67.73
59.85
53.43
48.47
44.00
38.45
30.54
20.02
7.81
-4.49
-15.67
-25.52
-34.84
-44.54
-54.66
-63.86
-69.84
-70.18
-63.49
-49.82
-30.53
-7.86
15.73
37.90
56.78
71.20
80.88
86.57
89.81
92.32
95.42
99.54
103.93
106.71
105.09
96.01
77.06
47.77
10.47
-29.53
-65.24
-90.28
-101.20
-98.96
-88.53
-76.69
-69.17
-68.29
-72.49
-77.47
-78.58
-72.89
-60.09
-42.00
-21.18
0.35
21.68
42.50
62.26
79.64
92.79
100.16
101.37
97.32
89.65
80.01
69.47
58.56
47.65
37.11
27.37
18.63
10.73
3.18
-4.48
-12.48
-20.90
-29.90
-39.93
-51.38
-64.12
-77.00
-87.83
-94.09
-93.79
-86.21
-72.03
-52.86
-30.61
-7.11
15.94
36.92
54.18
66.43
73.28
75.64
75.55
75.59
77.91
83.50
91.85
100.88
107.19
106.57
95.03
70.27
33.20
-11.29
-55.09
-89.32
-107.58
-108.60
-96.74
-79.96
-66.26
-60.24
-61.59
-66.06
-68.11
-63.76
-52.03
-34.65
-14.54
5.88
25.30
43.25
59.22
72.03
80.11
82.27
78.66
71.06
62.29
55.17
51.28
50.15
49.41
45.68
36.05
19.45
-2.59
-26.36
-47.44
-62.49
-70.65
-73.63
-74.59
-76.35
-79.92
-84.18
-86.72
-85.26
-78.74
-67.54
-52.90
-36.04
-17.75
1.55
21.28
40.26
56.69
68.81
75.68
77.80
77.02
75.87
76.53
80.08
86.35
93.89
100.27
102.28
96.37
79.75
51.82
15.31
-23.76
-57.75
-80.24
-88.71
-85.56
-76.76
-68.78
-65.54
-66.89
-69.46
-68.93
-62.54
-50.17
-33.88
-16.43
0.17
15.13
28.58
40.81
51.58
60.11
65.52
67.41
66.11
62.55
57.88
52.80
47.27
40.28
30.39
16.54
-1.03
-20.58
-39.23
-54.31
-64.45
-70.25
-73.70
-76.76
-80.07
-82.48
-81.80
-76.19
-65.31
-50.50
-33.92
-17.37
-1.48
13.97
29.30
44.09
57.09
66.78
72.38
74.55
75.21
76.71
80.56
86.77
93.86
99.61
101.69
98.00
86.87
67.25
39.48
6.09
-28.04
-56.81
-75.15
-81.22
-77.33
-68.67
-60.69
-56.33
-54.95
-53.34
-48.10
-37.69
-23.28
-7.68
6.36
17.38
25.50
31.55
36.20
39.35
40.38
38.83
35.10
30.48
26.72
25.31
26.51
28.92
29.68
25.31
13.14
-7.49
-34.58
-63.89
-90.38
-109.84
-120.11
-121.33
-115.10
-103.43
-87.87
-69.50
-49.46
-29.37
-11.20
3.27
13.31
19.48
23.23
25.93
28.26
30.03
30.62
29.87
28.51
28.03
29.91
34.88
42.55
51.59
60.07
65.64
65.52
56.56
36.24
4.24
-36.16
-77.87
-111.78
-130.05
-129.23
-111.65
-84.06
-54.44
-28.63
-8.82
5.89
17.41
26.70
33.27
36.04
34.64
30.17
24.85
20.78
18.97
18.96
19.42
19.15
17.77
15.75
13.98
13.08
12.96
12.54
9.99
3.26
-9.17
-27.43
-49.63
-71.99
-89.77
-98.74
-96.68
-84.09
-63.86
-40.06
-16.56
3.82
19.54
29.97
35.08
35.42
32.18
27.22
22.72
20.37
20.89
23.68
27.37
30.59
32.82
34.58
37.05
41.30
47.67
55.51
63.04
67.43
65.01
52.11
26.52
-10.62
-53.73
-93.48
-119.66
-125.08
-108.81
-76.66
-38.77
-5.25
17.74
29.45
33.26
33.74
33.89
34.15
33.25
29.79
23.61
16.05
9.15
4.58
2.87
3.48
5.29
7.36
9.22
10.62
10.87
8.31
0.42
-15.03
-38.40
-67.07
-95.62
-117.47
-127.37
-123.46
-107.80
-85.24
-61.12
-39.40
-21.75
-8.14
1.93
8.51
11.13
9.53
4.45
-1.98
-7.07
-8.53
-5.59
0.77
8.45
15.46
20.97
25.58
30.65
37.19
44.97
52.53
57.70
58.26
52.40
38.91
17.63
-9.83
-39.34
-64.51
-78.31
-75.84
-56.88
-26.56
6.33
33.01
48.09
51.27
46.35
38.46
31.24
25.55
20.02
12.92
3.64
-6.62
-15.59
-21.13
-22.39
-20.20
-16.56
-13.93
-14.44
-19.30
-28.52
-40.91
-54.40
-66.60
-75.47
-79.72
-79.08
-73.94
-64.97
-52.81
-38.14
-21.93
-5.64
8.95
20.27
27.45
30.52
30.22
27.60
23.71
19.63
16.42
15.10
16.21
19.48
23.91
28.22
31.62
34.37
37.54
42.28
48.96
56.92
64.83
71.16
74.49
73.33
65.99
51.17
29.13
2.88
-21.82
-38.10
-40.80
-29.01
-6.76
18.52
39.31
50.87
52.63
47.30
38.71
29.86
21.90
14.69
7.66
0.81
-5.14
-9.23
-10.83
-10.20
-8.47
-7.29
-8.20
-12.03
-18.48
-26.02
-32.51
-36.02
-35.85
-32.84
-29.00
-26.27
-25.39
-25.44
-24.37
-20.32
-12.81
-3.13
6.40
13.68
17.85
19.43
19.58
19.22
18.57
17.45
15.88
14.51
14.43
16.49
20.71
26.06
31.07
34.65
36.70
38.10
39.99
43.10
47.49
52.60
57.44
60.49
59.68
52.66
37.99
16.59
-7.37
-27.18
-36.13
-30.62
-12.27
12.45
35.05
48.73
51.05
44.27
33.25
22.68
14.98
10.07
6.54
3.28
0.29
-1.41
-0.80
2.17
6.38
9.98
11.18
8.95
2.98
-6.46
-18.85
-33.51
-49.34
-64.74
-77.62
-85.77
-87.51
-82.13
-70.21
-53.39
-33.98
-14.42
3.13
17.10
26.63
31.55
32.26
29.61
24.76
19.07
14.01
10.90
10.58
13.18
17.98
23.65
28.69
32.02
33.46
33.72
33.91
34.90
36.80
38.96
40.46
40.50
38.33
33.03
23.42
8.56
-11.05
-32.58
-50.92
-60.35
-57.05
-41.17
-17.16
7.96
27.62
38.15
39.75
35.32
28.50
21.94
16.69
12.75
9.91
8.36
8.49
10.46
13.65
16.69
17.99
16.31
11.27
3.45
-5.90
-15.27
-23.40
-29.68
-34.27
-37.83
-41.03
-44.00
-46.00
-45.68
-41.68
-33.46
-21.81
-8.65
3.67
13.30
19.49
22.57
23.44
22.95
21.51
19.20
16.12
12.71
9.89
8.71
9.83
13.27
18.30
23.77
28.70
32.55
35.24
36.71
36.65
34.40
29.20
20.60
8.72
-5.80
-21.93
-38.27
-52.93
-63.46
-67.15
-61.96
-47.56
-26.09
-1.90
19.82
34.91
41.70
41.31
36.70
31.19
27.00
24.87
24.39
24.72
25.24
25.70
26.03
26.00
25.13
22.80
18.35
11.33
1.56
-10.58
-24.17
-37.85
-50.08
-59.62
-65.80
-68.60
-68.48
-66.05
-61.86
-56.41
-50.13
-43.53
-37.09
-31.15
-25.91
-21.48
-18.05
-15.88
-15.14
-15.58
-16.42
-16.52
-14.80
-10.66
-4.17
4.06
13.26
22.76
32.07
40.64
47.58
51.79
52.42
49.36
43.42
35.83
27.43
18.17
7.26
-5.78
-20.05
-32.89
-40.68
-40.55
-31.99
-17.41
-1.18
12.35
20.62
23.65
23.46
22.62
22.92
24.75
27.39
29.77
31.30
32.04
32.45
32.77
32.52
30.46
24.82
14.06
-2.59
-24.39
-49.00
-72.76
-91.73
-102.91
-105.20
-99.66
-88.87
-75.60
-61.80
-48.04
-34.00
-19.24
-4.06
10.31
22.16
30.02
33.23
32.27
28.52
23.91
20.36
19.28
21.25
25.77
31.59
37.23
41.57
44.29
45.82
46.83
47.66
48.04
47.31
44.80
40.00
32.41
21.38
6.23
-12.92
-34.40
-54.58
-68.61
-72.18
-63.55
-44.58
-20.28
3.19
20.95
30.97
34.19
33.24
30.85
28.51
26.38
23.93
20.71
17.04
13.98
12.73
13.91
16.99
20.25
21.33
17.90
8.43
-7.50
-29.24
-55.18
-82.91
-109.23
-130.21
-141.75
-140.58
-125.41
-97.74
-61.81
-23.53
11.15
37.83
54.48
61.36
60.43
54.36
45.92
37.53
31.12
27.95
28.57
32.75
39.61
47.79
55.70
61.74
64.52
63.07
56.98
46.55
32.57
16.22
-1.22
-18.38
-33.53
-44.66
-49.80
-47.91
-39.68
-27.77
-15.81
-6.88
-1.93
0.52
3.33
8.73
16.80
25.35
31.32
32.79
30.22
26.13
23.48
23.80
26.30
28.53
27.91
23.31
15.73
7.67
1.83
-0.27
0.95
3.37
4.01
0.15
-9.72
-25.46
-45.27
-65.92
-83.23
-92.83
-91.42
-78.05
-55.01
-27.65
-2.78
13.62
18.51
12.46
-1.22
-18.33
-35.59
-51.42
-65.71
-79.05
-92.08
-105.27
-118.79
-132.30
-144.62
-153.59
-156.59
-151.64
-138.45
-118.86
-95.98
-72.94
-51.59
-31.79
-11.87
10.76
39.03
75.92
123.86
183.71
253.26
326.51
394.22
446.48
475.93
480.28
462.86
430.56
390.54
347.31
301.88
253.11
200.29
145.25
92.66
48.31
16.53
-1.98
-10.57
-15.09
-21.35
-32.60
-48.22
-64.56
-76.98
-82.10
-79.19
-70.00
-57.69
-45.59
-36.71
-33.75
-39.30
-55.22
-81.68
-116.02
-152.65
-184.30
-204.32
-208.96
-198.45
-176.57
-148.78
-120.30
-94.64
-73.51
-57.22
-45.45
-37.58
-32.50
-28.61
-23.76
-15.94
-4.02
11.69
29.53
47.16
62.60
75.05
84.86
92.92
99.47
103.38
102.12
92.71
72.94
42.58
3.72
-39.51
-81.80
-117.68
-142.48
-153.12
-148.73
-130.95
-103.57
-71.61
-39.97
-12.16
10.27
27.54
40.70
50.65
57.72
61.92
63.49
63.28
62.84
63.74
66.89
72.05
77.79
81.94
82.40
77.63
66.57
48.44
22.47
-11.69
-53.09
-98.69
-143.36
-180.83
-205.69
-214.92
-208.65
-189.60
-161.80
-129.33
-95.76
-64.31
-38.01
-19.43
-9.89
-8.66
-12.87
-18.30
-20.88
-17.98
-8.96
5.24
22.71
41.46
59.72
75.91
88.52
96.14
97.83
93.43
83.37
68.10
47.62
21.61
-9.52
-43.56
-76.07
-101.10
-113.21
-109.65
-91.58
-63.59
-31.77
-1.29
24.88
45.88
62.09
74.14
82.25
86.20
85.84
81.44
73.83
64.33
53.91
43.60
34.98
30.22
31.35
39.14
52.15
66.48
76.49
75.34
57.46
20.52
-33.39
-98.25
-165.27
-224.38
-266.29
-284.70
-279.33
-255.82
-223.62
-192.67
-170.39
-159.78
-159.06
-163.53
-162.03
-148.10
-124.38
-100.09
-82.81
-73.89
-70.25
-67.91
-64.61
-58.51
-50.18
-41.19
-32.54
-23.71
-13.28
0.01
16.97
38.48
64.14
93.99
126.82
159.95
190.08
214.03
229.10
234.09
229.77
222.46
219.13
224.23
238.76
261.37
289.53
319.84
348.12
349.02
306.50
221.93
114.42
7.98
-79.79
-140.75
-174.89
-187.46
-188.21
-182.03
-172.36
-162.65
-156.44
-155.95
-161.15
-171.54
-184.54
-197.57
-205.86
-205.92
-196.48
-178.40
-153.27
-122.51
-87.50
-49.95
-12.30
24.61
59.94
92.34
119.89
140.74
153.90
159.32
158.07
151.71
142.86
133.60
124.79
116.10
106.70
96.14
84.68
73.18
62.63
54.00
47.63
43.17
39.90
37.23
35.14
34.23
35.50
39.94
48.35
61.12
78.15
98.84
122.04
146.19
169.59
190.76
208.70
223.15
234.59
244.05
252.78
261.72
271.10
280.08
286.75
288.60
283.13
268.73
245.18
213.75
176.83
137.24
97.44
59.15
23.16
-10.54
-42.49
-73.57
-104.93
-137.91
-173.61
-212.13
-251.81
-288.96
-318.68
-336.54
-340.44
-331.67
-314.50
-294.40
-275.80
-260.52
-247.47
-233.88
-216.98
-195.41
-169.74
-142.00
-114.64
-89.71
-68.33
-50.73
-36.54
-25.13
-16.09
-9.43
-5.49
-4.88
-8.31
-16.43
-29.53
-47.08
-67.36
-87.29
-102.77
-109.70
-105.33
-89.32
-63.97
-33.57
-2.97
23.89
44.73
58.99
67.11
69.76
67.39
60.45
49.72
36.40
21.92
7.33
-6.86
-20.59
-33.68
-45.55
-55.45
-63.15
-69.72
-77.48
-89.03
-105.65
-126.11
-146.51
-161.56
-166.62
-159.46
-141.03
-114.78
-85.25
-56.47
-31.07
-10.11
6.43
19.05
28.22
34.25
37.51
38.63
38.66
39.04
41.36
47.02
56.83
70.76
87.81
105.82
121.58
130.94
129.28
112.41
78.05
27.66
-32.66
-92.80
-141.27
-168.80
-171.57
-152.34
-118.88
-80.84
-46.22
-19.47
-1.50
8.98
13.88
14.94
13.83
12.55
13.27
17.72
26.32
37.72
49.35
58.50
63.36
63.68
60.68
56.08
51.36
47.10
42.90
37.69
30.05
18.56
2.29
-18.68
-42.78
-66.81
-86.64
-98.49
-100.30
-92.63
-78.26
-60.95
-43.87
-28.57
-14.94
-1.95
11.36
25.20
38.94
51.48
61.66
68.72
72.56
74.02
74.83
77.27
83.50
94.66
110.06
126.88
140.57
145.76
137.41
112.17
69.69
13.74
-47.85
-104.49
-145.70
-164.58
-160.14
-137.63
-106.21
-75.28
-51.18
-35.90
-27.93
-24.57
-23.80
-24.83
-27.36
-30.30
-31.48
-28.41
-19.63
-5.76
10.59
25.69
36.06
39.48
35.58
25.76
12.76
-0.45
-11.96
-21.83
-32.33
-46.69
-67.20
-93.51
-122.18
-147.97
-166.20
-174.93
-175.62
-172.08
-168.39
-166.94
-167.71
-168.84
-167.86
-162.88
-153.17
-139.13
-121.98
-103.05
-83.15
-62.12
-38.82
-11.53
21.12
59.43
102.02
145.73
186.09
217.91
235.99
236.22
217.08
181.15
135.72
91.66
60.20
48.79
57.89
80.45
104.78
119.44
117.82
100.32
72.95
43.93
19.72
2.96
-7.32
-13.87
-19.07
-23.81
-27.62
-29.61
-29.25
-26.67
-22.22
-15.85
-6.85
5.71
21.96
40.44
58.11
71.47
78.17
78.12
73.19
65.77
56.99
45.74
29.38
5.71
-25.19
-60.02
-93.20
-119.04
-133.87
-137.20
-131.49
-120.83
-109.41
-100.27
-94.58
-91.56
-88.84
-83.24
-71.82
-52.85
-26.29
6.38
42.79
80.66
118.31
154.76
189.28
220.76
247.23
265.77
272.90
265.18
240.26
197.86
140.79
75.36
10.55
-44.01
-80.76
-96.76
-94.74
-82.02
-67.73
-59.28
-59.98
-68.50
-80.27
-89.91
-93.32
-88.63
-75.78
-55.70
-29.58
1.24
34.94
69.05
100.57
126.66
145.30
155.70
157.91
152.00
137.31
112.39
76.07
28.97
-25.27
-80.10
-127.64
-161.32
-178.11
-179.42
-170.25
-156.94
-144.80
-136.51
-131.94
-128.95
-124.64
-116.34
-102.01
-80.46
-51.38
-15.64
24.61
66.03
104.79
137.37
161.68
177.61
186.91
192.41
196.68
200.96
204.35
203.82
195.16
174.33
139.39
91.77
36.64
-18.18
-64.52
-96.44
-112.17
-114.37
-108.67
-101.05
-95.56
-93.16
-92.22
-90.08
-84.56
-74.70
-60.57
-42.54
-20.70
4.96
33.89
64.44
93.86
118.89
136.86
146.49
147.91
142.28
131.06
115.43
95.90
72.27
43.98
10.82
-26.31
-64.96
-101.32
-131.38
-152.32
-163.60
-166.92
-165.23
-161.09
-155.57
-148.08
-137.09
-121.20
-99.87
-73.40
-42.64
-8.61
27.53
64.23
99.51
131.18
157.38
177.25
191.33
201.42
209.84
218.32
226.95
233.67
234.79
226.11
204.30
168.03
118.55
59.79
-2.30
-60.76
-109.18
-143.44
-162.88
-170.34
-170.76
-168.88
-167.21
-165.22
-160.18
-149.15
-130.72
-105.65
-76.15
-44.56
-12.54
19.07
49.43
77.10
100.15
116.80
126.41
130.04
130.09
129.24
129.19
129.55
127.68
119.36
100.59
69.59
28.14
-18.48
-63.19
-99.55
-124.05
-136.88
-141.08
-140.56
-138.47
-136.46
-135.13
-134.85
-136.18
-139.21
-142.84
-144.07
-138.73
-122.94
-94.89
-55.85
-9.88
37.57
81.50
118.88
149.11
173.47
193.88
211.59
226.48
236.95
240.53
234.63
217.33
187.93
147.51
99.23
48.19
0.57
-37.91
-63.70
-76.54
-79.32
-76.71
-73.11
-71.14
-71.20
-72.41
-73.93
-75.99
-79.70
-85.97
-94.29
-102.17
-105.84
-101.75
-88.10
-65.60
-37.06
-6.17
23.75
50.67
73.73
92.62
106.84
115.20
115.83
106.71
86.56
55.87
17.55
-23.29
-60.46
-88.59
-104.94
-110.01
-106.93
-99.72
-91.49
-83.68
-76.34
-69.31
-63.02
-58.49
-56.48
-56.50
-56.58
-54.00
-46.80
-34.93
-20.37
-6.12
5.31
13.36
19.89
28.31
42.17
63.45
91.56
123.23
153.25
175.62
184.87
177.27
151.87
111.28
61.50
10.88
-32.01
-60.80
-72.97
-70.13
-56.83
-38.46
-19.40
-2.18
12.24
23.56
31.48
35.56
35.74
32.73
28.08
23.61
20.68
19.68
20.14
21.22
22.31
23.20
23.74
23.36
20.99
15.43
5.92
-7.55
-24.53
-44.46
-66.71
-90.36
-113.48
-133.03
-145.54
-148.49
-141.64
-127.37
-109.71
-92.74
-79.01
-69.08
-62.13
-56.96
-52.71
-48.79
-44.50
-38.63
-29.83
-17.17
-0.82
17.85
36.72
53.79
68.04
79.72
89.97
100.05
110.39
120.07
126.75
127.17
118.06
97.12
64.05
21.11
-26.77
-72.85
-110.15
-133.40
-140.49
-132.90
-114.85
-91.48
-67.20
-44.70
-25.09
-8.64
4.36
13.35
17.94
18.56
16.80
15.15
16.01
20.79
29.21
39.57
49.60
57.61
63.21
67.32
71.40
76.30
81.52
85.10
84.04
75.18
56.04
25.75
-14.39
-60.50
-106.63
-146.04
-173.05
-184.72
-181.69
-167.44
-146.66
-123.50
-100.58
-79.15
-59.92
-43.74
-31.60
-23.95
-19.91
-17.24
-13.14
-5.35
6.83
22.35
39.00
54.41
67.10
76.90
84.87
92.58
101.36
111.43
121.66
129.45
131.21
123.19
102.46
68.11
22.15
-30.34
-82.15
-125.56
-154.60
-166.57
-162.45
-145.99
-121.91
-94.23
-65.48
-36.97
-9.64
15.24
35.94
51.00
59.90
63.57
64.17
64.21
65.80
70.07
77.13
86.18
95.88
104.35
109.43
108.84
100.62
83.59
57.62
23.81
-15.47
-56.85
-96.52
-130.97
-157.95
-176.95
-189.19
-196.64
-200.96
-202.59
-200.78
-194.39
-182.91
-166.93
-147.73
-126.38
-102.92
-76.51
-46.22
-12.25
23.55
58.13
88.38
112.49
130.62
144.70
157.39
170.79
185.44
200.06
211.84
217.25
212.81
195.84
165.02
121.16
67.67
10.48
-43.12
-86.44
-115.57
-130.61
-135.19
-134.40
-132.23
-130.07
-126.79
-120.39
-109.75
-95.46
-79.13
-62.00
-44.05
-24.14
-1.36
23.72
48.64
70.02
85.14
93.28
96.09
96.46
96.97
98.60
100.23
99.05
91.74
75.83
50.96
19.34
-14.68
-46.09
-70.96
-87.81
-97.92
-104.27
-109.89
-116.28
-122.86
-127.64
-128.47
-124.29
-115.46
-103.14
-88.37
-71.27
-51.12
-27.05
1.06
32.01
63.24
91.52
114.16
129.99
139.89
146.29
152.27
160.14
170.50
181.86
191.01
193.75
186.01
164.82
129.47
82.23
28.42
-24.59
-69.31
-100.32
-115.94
-118.52
-113.13
-105.35
-99.16
-95.85
-94.43
-92.83
-89.26
-82.76
-73.04
-59.89
-42.95
-21.99
2.46
28.56
53.44
74.06
88.32
95.89
98.04
96.89
94.33
91.22
87.19
80.76
69.97
53.16
29.84
1.22
-29.74
-59.15
-83.43
-100.53
-110.49
-115.01
-116.41
-116.56
-116.36
-115.87
-114.72
-112.44
-108.34
-101.28
-89.71
-72.21
-48.27
-18.98
13.11
44.67
72.69
95.37
112.40
124.80
134.26
142.41
150.20
157.37
162.43
162.83
155.50
137.75
108.24
67.96
20.53
-28.24
-71.71
-104.24
-122.75
-127.59
-122.16
-111.56
-100.83
-93.38
-90.26
-90.50
-91.96
-92.37
-89.90
-83.24
-71.45
-54.01
-31.10
-4.00
24.77
51.90
74.22
89.84
98.64
102.15
102.64
102.08
101.44
100.47
97.72
91.06
78.33
58.23
31.21
-0.19
-31.90
-59.62
-80.31
-93.32
-100.27
-104.06
-107.48
-112.12
-118.04
-124.11
-128.69
-130.09
-126.85
-117.75
-102.04
-79.59
-51.18
-18.54
15.82
48.99
78.18
101.34
117.57
127.39
132.52
135.34
138.07
141.94
146.71
150.41
149.66
140.46
119.67
86.57
43.87
-2.48
-44.94
-76.80
-94.40
-98.15
-91.77
-80.48
-68.98
-60.04
-54.45
-51.47
-49.73
-47.69
-43.77
-36.49
-24.79
-8.38
11.93
34.20
55.85
74.41
88.26
96.99
101.32
102.49
101.66
99.47
95.84
90.05
81.05
67.83
49.68
26.46
-1.29
-31.90
-62.67
-90.38
-112.15
-126.27
-132.55
-132.24
-127.51
-120.96
-114.52
-109.15
-104.98
-101.94
-99.59
-96.86
-92.09
-83.47
-70.21
-52.11
-29.65
-3.95
22.83
48.50
71.58
91.12
106.25
114.83
115.13
106.27
88.55
62.08
27.89
-11.69
-53.29
-93.16
-128.98
-158.11
-177.73
-185.21
-180.87
-166.84
-146.19
-122.22
-89.88
-50.77
-11.12
19.30
42.62
62.47
81.29
99.95
118.88
137.95
154.78
166.81
172.05
170.29
161.86
149.12
135.95
125.83
119.98
116.05
111.17
104.10
96.35
89.90
86.50
86.62
89.24
92.76
95.79
98.79
103.37
110.59
118.68
124.23
124.22
117.95
107.27
94.96
83.25
72.58
61.85
49.41
34.95
20.16
7.83
0.33
-1.75
0.62
5.82
12.70
20.93
30.92
43.06
56.91
70.77
81.92
87.27
84.43
72.62
52.97
28.22
1.69
-23.74
-46.23
-65.12
-80.45
-92.43
-101.20
-106.78
-109.14
-108.42
-104.98
-99.57
-93.32
-87.67
-84.00
-83.17
-85.00
-88.18
-90.58
-89.90
-84.42
-73.50
-57.51
-37.57
-15.23
7.70
29.27
47.56
61.09
69.17
72.08
70.85
66.87
61.30
55.00
48.60
42.65
37.75
34.23
32.06
30.62
29.06
26.56
22.66
17.10
9.54
-0.63
-14.08
-31.05
-50.86
-71.82
-91.72
-108.36
-120.15
-126.36
-126.96
-122.51
-113.87
-102.11
-88.45
-74.01
-59.75
-46.53
-35.21
-26.92
-22.95
-24.42
-31.71
-44.14
-59.96
-76.92
-92.95
-106.57
-117.02
-124.03
-127.45
-127.28
-123.77
-117.77
-110.70
-104.27
-99.89
-98.03
-97.86
-97.42
-94.15
-85.86
-71.50
-51.62
-28.08
-3.19
21.29
44.80
67.98
91.89
116.98
142.31
165.54
183.69
194.26
195.88
188.46
172.69
149.82
121.46
89.67
56.67
24.33
-6.30
-34.95
-61.31
-84.01
-100.13
-106.14
-99.82
-82.25
-58.51
-36.30
-23.15
-23.49
-36.96
-58.88
-82.15
-99.95
-107.79
-104.70
-92.98
-77.10
-61.77
-50.21
-42.96
-37.95
-31.73
-21.20
-5.06
15.70
38.35
59.55
76.28
86.39
88.71
82.96
69.93
51.43
30.46
10.56
-4.97
-14.10
-16.67
-14.31
-9.45
-4.24
0.41
4.94
10.56
18.26
27.90
38.04
46.53
51.43
51.80
47.84
40.53
31.03
20.22
8.44
-4.53
-19.31
-36.63
-56.78
-79.12
-101.85
-122.43
-138.45
-148.60
-153.27
-154.34
-154.30
-155.17
-157.97
-162.89
-169.74
-178.29
-187.94
-197.12
-202.90
-201.36
-188.83
-163.33
-125.63
-79.19
-29.08
19.76
63.97
102.40
135.74
165.32
191.78
214.32
230.73
238.05
233.75
216.59
187.31
148.70
105.20
62.19
24.83
-3.01
-19.74
-26.26
-25.69
-22.27
-20.30
-23.09
-32.35
-47.99
-68.10
-89.28
-107.14
-117.15
-115.81
-101.70
-76.08
-42.64
-6.50
27.16
54.38
73.28
84.04
88.47
89.15
88.44
87.94
88.12
88.45
87.53
83.60
75.05
61.09
42.32
20.77
-0.60
-19.07
-33.34
-44.22
-54.25
-66.35
-82.15
-100.72
-118.71
-131.53
-135.24
-128.05
-110.75
-86.08
-57.38
-27.35
2.40
31.12
58.18
82.44
102.35
116.57
124.74
127.95
128.52
129.09
131.60
136.72
143.66
150.48
154.55
152.98
143.19
123.49
93.60
55.04
10.94
-34.57
-77.34
-114.14
-143.08
-163.59
-175.75
-179.68
-175.16
-161.76
-139.35
-108.87
-72.68
-34.40
1.95
32.96
56.83
73.65
84.90
92.43
97.69
101.31
103.39
103.96
103.36
102.20
100.91
99.50
97.62
94.77
90.44
83.80
73.38
57.02
32.66
-0.61
-41.40
-86.04
-129.44
-166.65
-194.18
-210.40
-215.09
-208.61
-191.42
-164.07
-127.89
-85.47
-40.69
1.81
37.69
63.91
79.60
86.16
86.92
85.99
86.96
92.08
101.74
114.88
129.50
142.88
151.37
150.47
135.62
104.13
57.39
1.41
-54.47
-101.10
-132.97
-149.96
-156.12
-156.48
-153.80
-147.23
-133.69
-110.78
-79.33
-43.77
-10.32
15.91
33.16
43.23
50.07
57.48
67.28
78.63
88.36
92.53
87.82
72.62
47.38
14.24
-23.77
-63.31
-101.25
-134.87
-162.14
-182.11
-195.20
-203.12
-208.15
-212.06
-215.03
-215.39
-210.27
-196.83
-173.68
-141.48
-102.68
-60.47
-17.78
23.33
61.55
96.06
126.11
151.04
170.51
184.88
195.32
203.41
210.63
217.63
223.86
227.77
227.31
220.81
207.61
188.41
164.97
139.61
114.34
90.24
67.22
44.18
19.91
-5.93
-31.91
-54.78
-70.22
-74.31
-65.03
-43.19
-12.26
22.70
56.54
85.32
107.03
121.42
129.45
132.49
131.85
128.63
123.90
118.84
114.69
112.44
112.18
112.76
111.81
106.33
93.58
71.89
41.07
2.37
-41.95
-89.01
-135.47
-177.72
-211.94
-234.55
-242.90
-235.85
-214.50
-182.23
-144.12
-105.69
-71.62
-44.64
-25.04
-10.85
1.27
14.49
30.55
49.21
68.83
87.30
103.11
115.98
126.74
136.98
147.78
158.90
168.81
175.35
176.21
169.10
152.21
124.44
87.52
44.58
-0.32
-42.80
-78.37
-103.28
-115.80
-116.09
-106.26
-86.69
-58.68
-25.34
8.89
39.91
64.94
82.07
91.45
94.28
97.03
105.04
119.23
136.08
150.43
158.03
155.73
144.04
125.64
110.55
107.71
120.38
145.94
179.04
214.50
246.93
274.04
259.68
187.72
72.70
-50.33
-152.99
-225.92
-265.76
-286.07
-294.57
-294.60
-281.54
-251.37
-207.91
-157.61
-106.21
-56.36
-9.68
34.00
72.87
107.53
136.61
156.26
162.74
155.42
137.66
114.00
89.87
68.53
53.66
46.54
45.18
45.66
44.14
38.63
28.86
17.40
7.86
5.19
12.63
30.15
54.51
80.66
103.50
118.88
124.72
120.71
108.62
91.41
72.45
55.05
41.82
34.13
31.56
32.19
33.15
31.64
25.93
15.78
2.22
-13.04
-28.41
-42.92
-56.56
-70.13
-84.71
-101.02
-118.80
-136.71
-152.66
-164.79
-172.31
-175.87
-177.42
-179.49
-184.60
-194.57
-210.35
-231.60
-256.36
-280.73
-299.37
-306.67
-298.71
-274.95
-238.54
-195.25
-151.13
-110.40
-74.29
-41.70
-10.93
18.58
45.54
67.60
83.01
91.82
96.08
98.90
103.23
110.91
122.39
136.98
153.08
168.29
179.62
183.72
177.51
158.88
127.39
84.75
34.81
-16.84
-63.83
-100.15
-121.42
-126.01
-115.38
-93.64
-66.29
-38.76
-15.20
2.03
12.26
16.03
14.36
8.34
-1.08
-12.92
-25.85
-37.70
-45.55
-46.31
-38.07
-21.47
-0.15
19.81
32.07
32.62
21.60
3.50
-14.77
-26.77
-28.99
-21.69
-7.72
9.71
28.55
48.04
67.60
85.27
97.36
99.60
89.08
65.87
33.10
-4.47
-42.33
-77.57
-108.80
-135.23
-155.65
-168.22
-171.39
-165.10
-151.60
-135.14
-120.67
-112.25
-111.89
-119.33
-132.52
-148.56
-164.40
-177.43
-185.87
-188.97
-186.91
-180.59
-171.30
-160.41
-148.96
-137.24
-124.48
-109.06
-89.60
-66.30
-42.04
-22.14
-12.32
-15.97
-32.05
-55.11
-77.62
-93.15
-98.77
-95.50
-86.89
-76.69
-67.07
-58.17
-48.72
-37.24
-22.95
-6.28
11.36
27.81
40.65
47.79
48.17
42.47
33.41
25.43
23.58
31.97
52.50
84.01
122.45
162.14
197.39
223.90
239.20
242.44
233.61
213.16
181.83
141.05
93.54
43.74
-2.60
-39.45
-62.15
-68.94
-61.61
-45.05
-25.69
-9.74
-1.34
-1.63
-8.52
-17.46
-22.99
-21.04
-11.34
1.98
12.00
12.71
2.79
-12.91
-25.57
-27.00
-14.30
8.53
32.89
50.20
56.01
51.11
39.67
26.01
12.55
-0.07
-11.43
-19.96
-23.25
-19.58
-9.39
4.43
17.86
27.55
32.13
32.46
30.79
29.55
30.56
34.90
43.07
55.31
71.42
90.40
110.31
128.32
141.31
146.75
143.59
132.50
115.66
95.85
75.66
57.02
41.16
28.95
21.07
17.80
18.41
20.90
22.34
19.92
12.23
-0.19
-15.03
-29.23
-40.23
-46.75
-48.97
-48.05
-45.53
-42.73
-40.48
-39.13
-38.68
-39.10
-40.47
-43.19
-47.83
-54.88
-64.39
-75.57
-86.92
-96.40
-102.06
-102.67
-98.11
-89.30
-77.88
-65.60
-53.91
-43.68
-35.31
-29.01
-24.84
-22.70
-22.19
-22.49
-22.59
-21.72
-19.72
-17.12
-14.89
-13.81
-14.20
-15.74
-17.94
-20.67
-24.29
-29.65
-37.35
-47.33
-58.46
-68.75
-75.87
-77.76
-73.24
-62.28
-45.99
-26.33
-5.66
13.79
30.33
43.04
51.84
57.23
60.00
60.87
60.32
58.65
56.22
53.60
51.62
51.02
52.03
54.27
56.88
59.15
61.00
63.15
66.58
71.85
78.58
85.58
91.65
96.26
99.95
104.02
109.58
116.78
124.62
131.32
135.22
135.44
132.09
126.07
118.46
110.27
102.17
94.48
87.09
79.29
69.72
56.65
38.50
14.63
-14.25
-46.01
-77.74
-106.60
-130.56
-148.76
-161.48
-169.79
-175.14
-178.90
-181.95
-184.40
-185.40
-183.46
-176.94
-164.80
-147.11
-125.08
-100.73
-76.21
-53.32
-33.21
-16.63
-3.96
4.65
9.45
11.14
10.82
9.62
8.39
7.32
6.14
4.38
1.78
-1.46
-4.83
-7.82
-10.27
-12.46
-15.04
-18.74
-24.19
-31.52
-40.26
-49.14
-56.24
-59.35
-56.64
-47.22
-31.61
-11.61
10.25
31.39
49.85
64.53
75.07
81.66
84.68
84.65
82.12
77.74
72.12
65.87
59.47
53.35
47.81
43.04
39.14
36.04
33.56
31.30
28.73
25.14
19.79
12.10
1.99
-9.77
-21.44
-30.66
-35.06
-33.04
-24.37
-10.26
7.05
25.06
41.62
55.36
65.63
72.35
75.70
76.08
74.10
70.49
65.96
61.10
56.17
51.23
46.28
41.42
36.84
32.71
29.07
25.74
22.40
18.63
14.13
8.71
2.31
-4.87
-12.23
-18.69
-22.72
-22.78
-17.81
-7.70
6.50
22.86
39.10
53.25
63.96
70.64
73.33
72.43
68.60
62.57
55.13
46.98
38.63
30.31
22.00
13.53
4.69
-4.75
-15.00
-26.43
-39.51
-54.79
-72.57
-92.67
-114.19
-135.64
-155.16
-170.88
-181.24
-185.16
-182.10
-172.19
-156.10
-134.94
-110.19
-83.44
-56.26
-30.02
-5.80
15.65
33.86
48.62
59.95
68.02
73.10
75.54
75.73
74.18
71.50
68.32
65.25
62.73
60.99
59.84
58.85
57.26
54.48
50.25
44.86
39.11
34.02
30.65
29.87
32.18
37.62
45.69
55.31
64.94
72.92
78.12
80.25
79.59
76.48
70.47
60.10
43.11
17.37
-17.82
-60.67
-106.57
-149.06
-181.76
-200.59
-205.15
-198.56
-185.72
-170.91
-156.11
-140.87
-123.66
-103.67
-82.18
-62.28
-47.66
-40.75
-41.68
-48.26
-56.80
-63.23
-64.04
-57.09
-41.90
-19.58
7.66
37.32
67.24
95.87
122.12
144.84
162.62
173.98
178.07
175.47
168.51
160.66
155.48
155.26
160.11
168.09
176.08
181.17
181.66
177.33
168.95
157.48
143.32
126.31
106.13
82.92
57.73
32.37
9.06
-10.08
-23.54
-30.53
-31.09
-26.04
-16.94
-5.76
5.48
15.12
22.24
26.63
28.60
28.77
28.08
27.90
29.95
35.64
45.15
56.85
67.65
74.02
73.62
66.37
54.36
40.61
27.46
15.34
2.80
-12.43
-31.78
-54.61
-78.05
-97.99
-110.74
-114.51
-110.12
-100.42
-88.95
-78.41
-69.69
-62.19
-54.96
-48.00
-42.71
-41.45
-46.13
-56.94
-71.87
-87.45
-100.30
-108.66
-112.91
-115.11
-117.76
-122.51
-129.44
-137.36
-144.84
-151.39
-157.64
-164.82
-173.35
-182.14
-188.44
-188.68
-179.79
-160.49
-131.84
-96.88
-59.63
-23.77
7.40
31.32
46.44
52.70
51.83
47.33
43.94
46.45
58.53
80.56
109.14
138.35
161.81
174.83
175.73
166.24
150.48
134.12
121.41
113.69
109.83
107.38
103.96
98.41
91.28
80.49
67.83
57.17
50.78
47.92
46.58
45.74
45.40
45.51
44.73
42.17
35.76
23.83
6.63
-14.11
-36.38
-58.78
-80.83
-102.82
-124.52
-141.77
-152.04
-154.53
-150.65
-143.46
-136.15
-131.27
-131.08
-136.10
-146.10
-160.68
-178.62
-197.83
-215.36
-227.18
-230.06
-223.46
-207.60
-183.22
-151.40
-113.09
-69.50
-22.00
29.27
84.51
143.04
199.45
244.57
271.05
278.55
271.72
255.15
232.59
214.36
199.21
186.87
178.78
176.57
180.95
191.16
199.54
202.91
200.74
193.99
187.37
187.58
201.19
231.95
278.31
332.89
385.18
423.37
437.17
422.84
383.45
327.03
263.01
198.84
138.11
81.84
28.94
-22.44
-72.32
-119.20
-160.62
-194.42
-219.55
-236.35
-245.63
-248.85
-247.78
-243.71
-237.91
-232.13
-228.55
-229.27
-235.16
-244.66
-254.00
-258.41
-253.73
-238.36
-213.88
-184.31
-154.42
-128.09
-107.15
-91.55
-80.10
-71.29
-63.98
-57.55
-51.81
-46.75
-42.57
-39.50
-37.79
-37.58
-38.80
-41.13
-44.05
-47.13
-50.08
-53.02
-56.25
-60.31
-65.73
-72.84
-81.50
-90.78
-98.89
-103.42
-102.13
-93.75
-78.59
-58.48
-36.00
-13.61
7.00
24.92
39.75
51.18
58.95
63.06
64.06
63.02
61.14
59.25
57.50
55.52
52.83
49.33
45.47
42.00
39.59
38.43
38.05
37.49
35.76
32.23
26.88
20.38
13.79
8.32
5.09
5.06
9.07
17.75
31.12
48.29
67.22
85.06
98.82
106.28
106.64
100.66
90.44
78.75
68.28
61.04
57.86
58.32
61.02
64.09
65.88
65.49
62.84
58.55
53.47
48.19
42.81
36.75
28.97
18.28
3.81
-14.47
-35.41
-56.80
-75.89
-90.15
-98.20
-100.12
-97.43
-92.52
-87.88
-85.52
-86.52
-91.09
-98.58
-107.80
-117.29
-125.54
-131.23
-133.47
-131.93
-126.98
-119.45
-110.30
-100.50
-90.90
-82.25
-75.23
-70.46
-68.40
-69.26
-72.49
-76.56
-79.12
-77.64
-70.29
-56.63
-38.07
-17.52
1.14
14.70
21.68
22.55
19.23
14.04
9.04
5.46
3.78
3.07
2.46
1.66
0.75
-0.32
-1.84
-4.05
-6.99
-10.56
-16.34
-25.40
-37.66
-52.32
-68.78
-86.70
-105.51
-123.96
-140.21
-154.67
-166.70
-173.77
-172.73
-161.92
-142.12
-116.23
-88.53
-63.97
-50.29
-51.75
-66.52
-88.21
-109.50
-124.93
-132.13
-131.92
-107.01
-54.85
11.19
71.75
115.74
143.26
159.68
170.32
178.37
184.95
186.65
181.70
172.19
162.97
158.26
160.36
169.68
184.95
203.56
219.56
224.61
216.24
195.99
167.45
134.63
101.73
72.90
52.70
39.69
32.06
28.57
27.34
26.14
23.44
19.16
14.35
10.10
5.70
-0.72
-9.36
-19.68
-30.60
-40.75
-48.73
-53.46
-54.26
-51.18
-44.08
-32.58
-17.03
1.39
20.72
38.70
53.07
61.89
63.91
59.12
49.07
36.28
23.71
13.77
7.53
4.22
1.74
-2.38
-9.79
-20.66
-33.94
-47.63
-59.38
-67.08
-69.39
-66.15
-58.63
-49.21
-40.61
-34.80
-32.29
-32.00
-31.98
-30.63
-27.42
-23.05
-18.88
-16.04
-14.84
-15.03
-16.04
-17.55
-19.60
-22.39
-25.92
-29.70
-32.51
-32.54
-27.63
-15.89
3.55
29.87
60.34
91.03
118.16
139.44
154.56
164.51
170.24
171.62
167.57
157.31
141.67
123.58
107.16
95.80
90.70
90.57
92.65
94.23
93.75
90.82
85.45
77.37
65.94
50.74
32.34
12.70
-5.08
-17.87
-23.91
-23.88
-21.01
-19.84
-24.20
-35.20
-50.43
-64.82
-72.92
-71.45
-60.40
-42.52
-21.45
0.13
21.24
41.91
61.96
80.03
93.85
101.39
102.23
98.13
92.45
88.67
88.63
91.51
94.33
93.51
87.29
77.14
67.84
65.68
75.70
99.47
134.28
174.50
213.81
247.34
272.61
288.97
296.66
296.12
288.12
274.23
256.97
239.06
222.08
205.61
187.37
164.73
136.41
103.46
68.77
35.48
5.35
-21.85
-47.74
-73.96
-101.05
-128.46
-155.17
-180.78
-205.91
-231.71
-258.97
-287.25
-314.77
-338.99
-357.81
-370.15
-376.29
-377.20
-373.86
-366.50
-354.55
-336.98
-313.09
-283.13
-248.40
-210.98
-173.07
-136.52
-102.63
-72.36
-46.57
-26.04
-11.39
-2.51
1.74
3.41
4.94
8.25
14.12
22.06
30.66
38.18
43.02
43.91
39.94
30.69
16.67
-0.27
-16.85
-29.00
-33.00
-26.79
-10.72
12.65
39.49
66.09
89.90
109.94
126.64
141.21
155.02
169.10
183.80
198.72
212.56
223.35
228.79
226.86
216.42
197.60
171.77
141.06
107.67
73.23
38.53
3.59
-31.95
-68.09
-104.07
-138.27
-168.61
-193.34
-211.81
-224.75
-233.99
-241.62
-248.96
-255.98
-261.42
-263.51
-261.05
-254.19
-244.38
-233.58
-223.25
-213.61
-203.59
-191.58
-176.41
-158.02
-137.61
-117.07
-98.08
-81.55
-67.34
-54.52
-41.74
-27.65
-11.08
8.71
31.65
56.36
80.04
98.89
109.19
108.81
98.09
79.83
58.02
36.23
16.26
-2.14
-20.31
-39.39
-59.15
-77.78
-92.47
-100.55
-100.40
-91.89
-76.37
-56.07
-33.60
-11.46
8.26
24.01
34.75
40.12
40.58
37.63
33.76
31.93
34.80
43.92
59.19
78.87
100.28
120.66
137.96
151.25
160.54
166.38
169.35
169.77
167.54
162.33
153.89
142.30
128.12
112.33
96.13
80.56
66.40
54.09
43.74
35.15
27.79
20.73
12.89
3.47
-7.66
-19.53
-30.27
-37.65
-39.95
-36.76
-29.14
-19.28
-9.71
-2.60
0.81
0.23
-3.85
-10.57
-19.01
-28.39
-38.18
-48.06
-57.80
-67.09
-75.63
-83.10
-89.44
-94.87
-99.96
-105.30
-111.32
-118.19
-125.81
-133.96
-142.27
-150.07
-156.28
-159.44
-158.01
-150.95
-138.18
-120.67
-100.30
-79.35
-60.07
-44.45
-34.14
-30.37
-33.80
-44.27
-60.71
-81.19
-103.22
-124.34
-142.60
-156.95
-167.25
-174.07
-178.17
-180.10
-180.02
-177.82
-173.52
-167.64
-161.38
-156.48
-154.78
-157.65
-165.59
-177.84
-192.41
-206.29
-216.07
-218.74
-212.59
-197.64
-175.56
-148.97
-120.43
-91.70
-63.36
-35.03
-6.04
23.84
53.97
82.78
108.15
128.05
141.21
147.55
148.22
145.17
140.39
135.31
130.53
125.95
121.27
116.35
111.36
106.55
101.95
97.12
91.39
84.07
74.78
63.54
50.60
36.40
21.61
7.32
-4.70
-12.12
-12.56
-4.36
12.81
37.64
67.49
99.12
129.48
156.21
177.90
193.88
204.04
208.71
208.55
204.62
198.30
190.98
183.85
177.47
171.75
166.04
159.60
151.93
143.04
133.37
123.51
113.93
104.77
95.81
86.62
76.80
66.08
54.43
42.07
29.38
16.82
4.70
-6.94
-18.44
-30.53
-44.06
-59.56
-76.77
-94.32
-109.69
-119.80
-121.83
-114.12
-96.76
-71.58
-41.63
-10.30
19.37
45.27
66.22
81.78
92.09
97.60
99.00
97.24
93.45
88.73
83.99
79.75
76.09
72.74
69.22
65.18
60.38
54.78
48.52
41.75
34.64
27.32
19.87
12.24
4.34
-4.13
-13.54
-24.39
-37.03
-51.40
-66.79
-81.62
-93.67
-100.51
-100.17
-91.82
-76.08
-54.84
-30.72
-6.41
15.93
34.89
49.80
60.50
67.14
70.01
69.47
65.91
59.77
51.57
41.93
31.48
20.80
10.32
0.20
-9.65
-19.49
-29.59
-40.04
-50.69
-61.12
-70.72
-78.89
-85.25
-89.76
-92.89
-95.49
-98.67
-103.49
-110.62
-119.98
-130.35
-139.34
-143.70
-140.15
-126.49
-102.77
-71.67
-37.83
-6.25
19.55
38.72
52.82
64.63
76.42
88.93
101.42
112.66
121.91
129.46
136.32
143.27
150.23
156.02
159.00
157.80
152.05
142.49
130.78
118.84
108.21
99.59
92.65
86.27
79.00
69.63
57.50
42.57
25.24
6.19
-13.47
-32.12
-47.42
-56.61
-57.19
-47.73
-28.52
-1.62
29.72
61.99
92.27
118.67
140.29
156.91
168.60
175.57
178.24
177.27
173.62
168.29
162.20
155.91
149.64
143.33
136.89
130.39
124.06
118.26
113.37
109.67
107.36
106.38
106.28
106.14
104.55
99.84
90.49
75.68
55.71
31.95
6.67
-17.54
-38.43
-54.53
-65.50
-71.99
-75.39
-77.33
-79.18
-81.79
-85.39
-89.75
-94.48
-99.18
-103.56
-107.47
-110.73
-113.25
-115.04
-116.32
-117.50
-119.05
-121.29
-124.18
-127.40
-130.48
-133.18
-135.58
-138.22
-141.90
-147.38
-155.18
-165.23
-176.73
-188.16
-197.43
-202.32
-200.97
-192.48
-177.10
-156.17
-131.65
-105.61
-79.84
-55.63
-33.84
-14.99
0.79
13.81
24.83
34.80
44.45
53.93
62.74
69.97
74.92
77.50
78.46
79.03
80.32
82.83
86.23
89.58
91.72
91.78
89.49
85.09
79.49
74.08
70.69
71.28
77.53
90.23
108.76
131.09
154.51
176.76
196.99
215.92
235.07
255.56
277.12
297.90
315.10
326.07
329.21
324.26
311.91
293.35
269.95
243.43
215.90
189.62
166.25
145.97
126.88
104.96
75.13
33.11
-22.59
-89.58
-161.90
-231.50
-290.59
-333.64
-359.24
-370.04
-370.73
-365.60
-356.66
-343.48
-324.21
-297.53
-264.05
-227.68
-194.72
-171.08
-159.26
-157.26
-159.82
-160.58
-154.68
-139.90
-117.85
-93.19
-71.22
-55.92
-49.19
-50.71
-57.66
-67.52
-71.67
-57.85
-18.87
40.54
105.43
157.89
184.23
179.63
148.90
103.79
56.79
16.05
-15.55
-38.61
-54.67
-64.39
-67.37
-63.08
-52.15
-37.70
-25.20
-19.63
-23.22
-34.85
-50.84
-66.28
-76.00
-75.72
-63.54
-41.62
-14.69
11.19
30.56
40.31
40.49
33.99
23.84
14.60
8.03
4.00
2.16
3.10
8.26
18.47
33.19
50.52
68.27
84.25
97.65
109.09
119.80
130.05
138.48
142.77
140.28
129.48
108.97
78.67
40.86
0.85
-34.09
-56.70
-62.38
-51.80
-30.28
-7.28
8.24
11.51
3.26
-9.26
-18.68
-20.46
-20.07
-20.37
-23.26
-28.68
-35.75
-39.44
-38.47
-34.35
-29.83
-27.57
-27.87
-29.92
-32.16
-33.20
-32.45
-31.03
-30.78
-33.31
-39.26
-47.23
-55.28
-61.38
-64.15
-63.49
-61.09
-59.39
-60.70
-66.15
-74.57
-83.18
-88.24
-86.33
-75.96
-57.84
-34.48
-9.54
13.07
30.37
40.71
43.92
41.08
33.21
21.99
9.64
-2.20
-12.89
-22.71
-32.14
-41.28
-49.59
-57.42
-64.12
-68.26
-68.76
-65.77
-60.97
-57.21
-57.93
-66.17
-84.83
-112.48
-142.77
-167.02
-177.86
-172.25
-152.38
-124.59
-84.64
-38.07
4.36
34.58
51.45
58.12
57.87
53.43
48.21
44.66
45.15
50.71
60.11
69.52
74.26
70.68
58.13
39.27
19.31
2.85
-7.83
-13.00
-14.23
-12.43
-8.52
-4.36
-0.90
0.17
-1.66
-4.88
-6.10
-1.22
13.57
39.48
73.19
109.11
140.53
163.53
176.85
181.58
172.42
149.64
118.82
88.20
70.55
65.81
72.09
87.10
104.73
119.86
129.12
130.48
123.85
111.44
95.72
80.00
65.49
50.88
34.38
16.12
-1.98
-16.81
-25.11
-25.49
-17.36
-1.93
18.28
40.82
64.03
86.50
106.67
122.94
133.55
138.07
136.91
131.07
122.10
111.83
101.65
92.18
83.32
74.44
65.14
55.25
44.82
34.25
24.05
14.61
6.09
-1.67
-9.13
-16.74
-24.90
-33.66
-42.50
-50.30
-55.62
-57.25
-54.73
-48.63
-40.39
-31.74
-24.19
-18.53
-14.94
-13.32
-13.64
-16.08
-20.74
-27.34
-34.87
-41.85
-46.79
-48.73
-47.70
-44.63
-41.00
-38.17
-36.99
-37.55
-39.42
-42.00
-44.84
-47.81
-51.09
-54.93
-59.49
-64.59
-69.62
-73.63
-75.42
-73.91
-68.48
-59.26
-47.12
-33.53
-20.34
-9.40
-2.35
-0.27
-3.48
-11.30
-22.07
-33.50
-43.33
-50.09
-53.52
-54.45
-54.22
-53.87
-53.69
-53.22
-51.82
-49.30
-46.25
-43.85
-43.39
-45.61
-50.35
-56.43
-62.05
-65.30
-64.76
-59.90
-51.34
-40.66
-29.88
-20.87
-14.69
-11.36
-9.94
-9.21
-8.27
-7.05
-6.31
-7.34
-11.41
-19.25
-30.73
-44.66
-58.96
-71.03
-78.45
-79.63
-74.47
-64.47
-52.25
-40.75
-32.36
-28.32
-28.61
-32.31
-38.00
-44.26
-49.80
-53.59
-54.81
-53.06
-48.44
-41.54
-33.32
-24.70
-16.17
-7.69
1.17
10.66
20.25
28.41
32.97
32.05
25.00
13.09
-0.71
-12.71
-19.74
-20.37
-15.36
-7.43
-0.38
2.06
-2.57
-14.69
-32.33
-51.63
-67.98
-77.78
-79.94
-76.50
-71.82
-70.60
-75.69
-86.70
-100.06
-110.63
-113.73
-107.02
-91.08
-68.94
-44.86
-22.93
-6.05
4.45
8.72
7.90
3.50
-3.12
-10.96
-19.27
-27.25
-33.76
-37.56
-37.82
-34.64
-29.35
-24.06
-20.72
-20.17
-21.65
-23.16
-22.56
-18.80
-12.55
-5.97
-1.56
-0.62
-2.48
-4.76
-4.40
1.05
12.89
31.34
55.90
85.10
115.61
141.84
156.73
154.34
132.99
97.07
56.02
20.81
-0.49
-5.76
1.38
14.54
28.41
41.19
54.38
70.38
89.80
110.14
126.51
133.98
129.98
115.53
94.75
73.06
55.03
42.76
35.82
32.20
29.87
27.84
26.34
26.25
28.12
31.62
35.50
38.10
38.16
35.43
30.74
25.55
21.36
19.05
18.62
19.30
19.97
19.66
17.96
15.12
11.87
9.02
7.05
5.82
4.65
2.75
-0.35
-4.34
-8.19
-10.57
-10.38
-7.38
-2.17
3.96
9.63
13.89
16.39
17.30
17.05
16.01
14.41
12.32
9.78
6.89
3.79
0.74
-1.99
-4.18
-5.76
-6.79
-7.46
-8.01
-8.64
-9.52
-10.73
-12.42
-14.72
-17.67
-21.05
-24.23
-26.31
-26.36
-23.80
-18.70
-11.79
-4.21
2.83
8.43
12.09
13.80
13.83
12.69
10.93
9.17
7.87
7.37
7.71
8.75
10.23
11.84
13.32
14.45
14.98
14.68
13.44
11.35
8.69
5.75
2.66
-0.72
-4.57
-8.88
-13.14
-16.34
-17.31
-15.38
-10.67
-4.17
2.60
8.30
12.12
14.04
14.48
14.00
13.01
11.62
9.84
7.64
5.11
2.45
-0.11
-2.45
-4.44
-6.08
-7.45
-8.70
-10.09
-11.83
-14.09
-16.97
-20.37
-24.07
-27.68
-30.57
-32.01
-31.24
-27.67
-21.20
-12.31
-2.09
8.10
16.99
23.84
28.57
31.66
33.75
35.24
36.14
36.12
34.81
32.16
28.51
24.56
21.02
18.33
16.48
15.14
13.85
12.18
9.80
6.45
1.89
-3.95
-10.73
-17.49
-22.74
-24.83
-22.63
-16.00
-6.02
5.42
16.19
24.64
29.94
32.05
31.45
28.79
24.63
19.37
13.29
6.60
-0.53
-7.93
-15.47
-23.00
-30.49
-37.94
-45.45
-53.12
-60.99
-68.96
-76.87
-84.62
-92.33
-100.30
-108.75
-117.54
-125.91
-132.64
-136.35
-136.07
-131.50
-123.11
-111.88
-98.99
-85.52
-72.39
-60.34
-49.89
-41.33
-34.67
-29.71
-26.04
-23.30
-21.18
-19.51
-18.14
-17.00
-16.01
-15.19
-14.61
-14.34
-14.41
-14.83
-15.54
-16.69
-18.55
-21.57
-26.10
-32.06
-38.83
-45.18
-49.61
-50.77
-47.81
-40.64
-29.86
-16.49
-1.75
13.15
27.20
39.55
49.65
57.28
62.63
66.12
68.30
69.60
70.27
70.41
70.03
69.21
68.03
66.63
65.12
63.60
62.13
60.77
59.43
57.83
55.50
51.91
46.70
40.10
33.00
26.87
23.31
23.51
27.84
35.71
45.89
56.97
67.85
77.89
86.85
94.58
100.65
104.42
105.17
102.49
96.56
88.20
78.54
68.68
59.29
50.45
41.83
32.99
23.67
13.98
4.27
-5.07
-13.82
-22.10
-30.28
-38.83
-48.14
-58.40
-69.40
-80.56
-90.92
-99.17
-103.97
-104.21
-99.34
-89.59
-75.87
-59.54
-42.11
-24.86
-8.76
5.64
18.06
28.40
36.68
43.01
47.67
51.10
53.79
56.15
58.32
60.10
61.07
60.84
59.29
56.76
53.86
51.30
49.54
48.63
48.17
47.57
46.15
43.33
38.75
32.41
24.72
16.65
9.59
5.09
4.31
7.64
14.56
23.83
33.98
43.90
53.01
61.14
68.07
73.21
75.49
73.84
67.75
57.70
45.18
32.21
20.71
12.06
6.92
5.35
6.90
10.88
16.43
22.79
29.53
36.56
44.12
52.39
61.17
69.89
77.69
83.83
87.87
89.69
89.48
87.66
84.88
81.94
79.38
77.14
74.24
69.23
60.80
48.64
33.67
17.67
2.36
-11.30
-23.38
-34.39
-44.59
-53.61
-60.65
-65.07
-67.01
-67.41
-67.58
-68.61
-70.88
-73.93
-76.79
-78.39
-77.99
-75.43
-71.18
-66.12
-61.27
-57.49
-55.23
-54.49
-54.95
-56.24
-58.13
-60.49
-63.09
-65.24
-65.84
-63.65
-57.89
-48.62
-36.77
-23.87
-11.38
-0.36
8.71
15.71
20.53
23.14
23.61
22.43
20.36
18.34
17.14
17.17
18.39
20.33
22.27
23.62
24.07
23.75
23.20
23.09
23.89
25.44
26.88
26.92
24.60
19.61
12.27
3.32
-6.61
-16.83
-26.78
-36.11
-44.53
-51.51
-56.36
-58.59
-57.94
-54.84
-49.76
-43.58
-37.68
-34.85
-37.36
-45.41
-57.06
-69.75
-82.25
-93.77
-103.96
-112.65
-119.71
-124.75
-127.29
-128.69
-128.62
-126.98
-122.66
-113.88
-98.78
-75.95
-44.91
-6.51
37.01
83.07
123.25
150.17
160.96
158.16
147.59
135.36
125.75
121.14
122.57
129.30
139.31
148.37
150.53
140.27
115.19
77.21
32.09
-12.53
-49.18
-71.76
-76.57
-63.32
-35.97
-1.31
31.45
53.37
57.51
44.57
21.53
-2.04
-18.67
-25.47
-24.10
-18.64
-12.35
-6.52
-0.66
5.91
12.86
18.89
22.62
23.27
20.99
17.21
13.47
11.02
9.95
9.58
8.74
6.39
1.98
-4.67
-12.89
-21.81
-30.55
-38.55
-45.63
-51.94
-57.76
-61.99
-66.01
-70.34
-75.06
-79.70
-83.48
-85.56
-85.55
-83.55
-80.34
-77.26
-75.20
-74.76
-76.36
-80.36
-86.67
-94.11
-99.84
-99.70
-89.94
-68.80
-38.39
-4.28
26.49
48.42
59.58
61.90
59.36
55.56
52.36
49.61
46.35
42.17
37.80
34.55
33.34
34.00
35.32
35.76
34.26
30.72
26.02
21.48
18.29
16.96
17.17
17.95
18.22
17.27
14.98
11.86
8.68
6.21
4.79
4.35
4.46
4.55
4.19
3.20
1.65
-0.21
-2.05
-3.62
-4.73
-5.36
-5.60
-5.67
-5.84
-6.39
-7.52
-9.21
-11.26
-13.25
-14.80
-15.66
-15.84
-15.69
-15.58
-15.84
-16.54
-17.44
-18.10
-18.00
-16.58
-13.26
-7.58
0.39
9.58
17.76
22.02
19.88
10.35
-5.24
-23.41
-39.73
-50.22
-52.66
-46.89
-34.38
-17.27
2.25
22.19
40.65
55.59
65.46
69.72
69.13
65.54
61.22
57.99
56.69
57.10
58.35
59.67
60.62
61.14
61.23
60.71
58.97
55.32
49.50
41.79
33.09
24.46
16.62
9.41
1.89
-7.31
-19.25
-34.06
-50.71
-67.25
-81.64
-92.61
-100.12
-105.37
-110.17
-116.14
-124.20
-134.41
-145.67
-155.77
-161.28
-158.25
-143.47
-116.07
-78.55
-36.32
4.03
37.26
61.28
77.21
87.75
95.09
99.67
100.44
96.55
88.94
80.74
76.13
78.67
89.73
108.05
129.87
149.67
161.70
161.60
147.96
122.95
91.97
61.69
37.64
22.12
13.67
8.50
2.65
-5.80
-15.58
-22.83
-22.76
-11.79
10.45
40.58
72.55
99.73
117.29
124.00
122.36
116.55
111.69
111.51
116.55
124.13
129.97
130.31
123.63
110.81
94.12
75.82
56.96
37.31
16.33
-5.67
-27.17
-46.12
-61.25
-73.13
-84.46
-99.27
-121.29
-152.01
-189.39
-228.04
-260.78
-281.11
-285.40
-273.82
-249.49
-216.55
-178.35
-136.79
-93.25
-49.91
-10.39
20.91
40.27
45.81
37.84
18.23
-10.16
-43.89
-78.67
-109.23
-129.65
-134.67
-121.21
-89.74
-44.71
5.88
51.78
82.86
91.44
74.58
35.35
-17.70
-72.52
-116.42
-138.53
-131.94
-95.14
-32.86
43.98
120.11
179.67
211.27
212.18
189.18
155.41
124.41
104.25
94.94
90.28
82.37
66.29
42.37
15.27
-8.87
-25.50
-33.21
-33.39
-28.77
-21.93
-14.19
-5.75
3.62
13.69
23.38
30.83
34.19
32.78
27.89
22.37
19.33
20.31
24.09
26.91
24.29
13.39
-5.39
-28.50
-50.88
-68.23
-78.60
-82.61
-82.55
-80.99
-79.71
-79.36
-79.67
-80.08
-80.08
-79.70
-79.64
-81.29
-86.42
-96.51
-111.66
-129.70
-146.02
-154.67
-150.43
-131.41
-100.48
-64.90
-33.73
-14.15
-8.43
-13.29
-22.00
-28.05
-28.32
-24.06
-19.16
-17.28
-19.47
-23.66
-26.20
-23.98
-15.94
-3.13
12.42
28.89
45.13
60.38
73.61
83.21
87.43
85.18
76.73
63.76
48.82
34.36
21.97
12.16
4.61
-1.28
-6.02
-9.75
-12.38
-13.57
-12.87
-9.92
-4.60
2.71
11.06
19.07
25.44
29.64
32.21
34.74
39.24
47.20
58.70
71.88
83.16
88.38
84.44
70.94
50.65
28.70
10.57
-0.11
-2.71
0.66
6.69
12.66
17.48
21.56
25.76
30.38
34.73
37.64
38.23
36.51
33.33
29.80
26.66
23.76
20.26
15.06
7.64
-1.47
-10.63
-17.67
-20.74
-19.14
-13.61
-5.89
1.95
8.47
13.28
17.00
20.70
25.28
31.02
37.48
44.05
50.43
56.97
64.20
72.14
79.55
84.08
83.14
75.31
61.32
43.91
26.77
12.79
2.97
-3.73
-9.43
-16.11
-24.74
-35.19
-46.61
-57.93
-68.16
-76.36
-81.70
-83.58
-81.90
-77.15
-70.25
-62.40
-54.65
-47.79
-42.23
-38.12
-35.35
-33.55
-32.17
-30.56
-28.21
-24.98
-21.18
-17.46
-14.48
-12.63
-11.84
-11.70
-11.59
-11.06
-9.93
-8.41
-6.92
-6.02
-6.24
-7.91
-10.98
-14.91
-18.63
-20.77
-20.10
-15.97
-8.55
1.13
11.66
21.60
30.00
36.43
40.90
43.61
44.76
44.47
42.90
40.30
37.13
33.89
30.99
28.60
26.62
24.81
22.88
20.74
18.46
16.16
13.96
11.83
9.67
7.32
4.70
1.74
-1.58
-5.34
-9.67
-14.61
-20.02
-25.40
-29.84
-32.28
-31.79
-27.89
-20.78
-11.30
-0.68
9.87
19.41
27.36
33.44
37.53
39.61
39.84
38.52
36.19
33.43
30.70
28.16
25.69
23.01
19.83
16.06
11.80
7.37
3.11
-0.72
-4.09
-7.31
-10.81
-15.04
-20.23
-26.32
-33.09
-40.31
-47.95
-56.16
-65.19
-75.08
-85.69
-96.70
-107.76
-118.54
-128.61
-137.32
-143.67
-146.54
-145.04
-139.08
-129.49
-117.99
-106.70
-97.55
-91.79
-89.63
-90.19
-91.68
-91.88
-88.71
-80.80
-68.03
-51.56
-33.41
-15.83
-0.58
11.58
20.86
28.23
34.99
42.55
52.08
64.07
77.96
91.87
103.11
109.11
108.81
103.28
95.42
88.69
85.40
85.85
88.65
92.10
95.53
99.96
107.33
118.95
134.12
149.90
162.08
166.94
162.87
150.92
134.49
118.11
106.37
102.92
109.53
125.45
146.85
167.27
178.93
175.07
152.34
112.18
60.42
5.10
-46.16
-88.27
-119.26
-139.41
-150.00
-152.44
-148.15
-138.98
-127.42
-116.10
-106.89
-100.11
-94.44
-87.61
-77.64
-63.88
-47.35
-30.50
-16.23
-6.82
-2.99
-3.55
-5.89
-7.22
-5.91
-2.50
0.52
-0.19
-6.97
-19.90
-36.63
-53.36
-66.64
-74.71
-78.14
-79.18
-80.63
-84.67
-92.25
-102.97
-115.26
-127.02
-136.01
-140.56
-139.77
-133.68
-123.11
-109.15
-92.89
-75.13
-56.43
-37.32
-18.56
-1.07
14.05
25.76
33.38
36.60
35.73
31.76
26.64
23.28
25.10
35.10
54.53
82.04
113.75
144.51
169.68
186.72
195.57
197.98
195.95
190.57
181.63
168.18
149.50
125.86
98.66
70.10
42.56
18.14
-1.63
-15.80
-24.09
-26.88
-25.12
-20.27
-14.08
-8.37
-4.74
-4.42
-7.95
-15.02
-24.45
-34.39
-42.91
-48.52
-50.75
-50.19
-48.19
-46.32
-45.75
-46.88
-49.32
-52.18
-54.63
-56.27
-57.39
-58.90
-61.97
-67.46
-75.41
-84.80
-93.68
-99.62
-100.49
-94.96
-82.97
-65.74
-45.47
-24.81
-6.30
8.12
17.45
21.64
21.57
18.68
14.68
11.15
9.20
9.19
10.76
12.84
14.03
13.27
10.00
4.24
-4.30
-16.67
-34.15
-56.70
-81.55
-103.06
-114.78
-112.82
-98.45
-78.17
-60.57
-51.90
-52.83
-58.50
-61.61
-56.72
-42.89
-23.35
-2.96
14.85
29.38
42.02
54.41
66.96
78.50
86.97
90.80
89.71
84.89
78.57
72.86
69.08
67.32
66.63
65.54
62.89
58.30
52.32
46.07
40.62
36.35
32.58
27.76
20.21
9.14
-4.61
-18.30
-28.14
-30.51
-23.43
-7.46
14.55
38.44
60.28
77.40
88.80
94.78
96.26
94.45
90.70
86.61
83.80
83.47
85.65
88.95
90.90
89.02
82.03
70.63
57.34
45.45
37.63
34.79
35.93
38.67
40.38
39.32
35.03
28.19
19.85
10.77
1.17
-8.82
-18.40
-25.62
-27.70
-22.20
-8.28
12.59
37.03
61.08
81.75
97.87
109.93
119.05
125.92
130.27
131.18
127.92
120.64
110.49
99.14
88.03
77.87
68.60
59.82
51.09
42.20
33.11
23.84
14.50
5.36
-2.85
-9.02
-11.91
-10.64
-5.12
3.87
14.90
26.21
36.14
43.27
46.49
45.08
38.92
28.54
15.23
0.64
-13.61
-26.37
-37.20
-46.23
-53.92
-60.77
-67.07
-72.98
-78.55
-83.77
-88.73
-93.48
-98.15
-102.89
-107.82
-112.96
-117.99
-122.19
-124.55
-123.98
-119.67
-111.44
-99.79
-85.74
-70.62
-55.73
-42.14
-30.75
-22.16
-16.60
-13.74
-12.66
-11.99
-10.44
-7.29
-2.72
2.26
6.32
8.36
8.02
5.67
2.09
-2.01
-6.35
-11.11
-16.64
-23.04
-29.95
-36.48
-41.54
-44.16
-43.85
-40.60
-34.84
-27.17
-18.26
-8.78
0.50
8.69
14.96
18.72
19.87
18.88
16.53
13.65
10.87
8.47
6.49
4.83
3.40
2.09
0.76
-0.72
-2.46
-4.54
-7.05
-10.20
-14.43
-20.29
-28.12
-37.61
-47.61
-56.13
-61.00
-60.61
-54.60
-44.08
-31.20
-18.44
-7.67
0.29
5.62
9.06
11.35
12.82
13.40
12.86
11.24
8.98
6.82
5.49
5.33
6.13
7.24
7.90
7.62
6.31
4.19
1.48
-1.82
-5.97
-11.14
-17.07
-22.76
-26.68
-27.29
-23.71
-16.15
-5.82
5.53
16.24
25.19
31.93
36.41
38.75
38.99
37.25
33.80
29.21
24.23
19.53
15.46
11.96
8.66
5.10
0.94
-3.94
-9.47
-15.57
-22.24
-29.52
-37.41
-45.55
-53.20
-59.23
-62.36
-61.61
-56.64
-47.93
-36.76
-24.76
-13.63
-4.70
1.19
3.71
3.01
-0.40
-5.73
-12.06
-18.45
-24.12
-28.53
-31.51
-33.32
-34.65
-36.49
-39.83
-45.33
-53.09
-62.67
-73.45
-84.97
-96.98
-109.40
-121.94
-133.84
-144.00
-151.26
-154.74
-154.04
-149.15
-140.29
-127.89
-112.69
-95.87
-78.88
-63.11
-49.40
-37.87
-28.07
-19.48
-11.87
-5.35
-0.10
4.08
7.87
12.20
17.71
24.31
31.11
36.86
40.50
41.80
41.38
40.48
40.46
42.47
47.22
55.10
66.05
79.47
94.17
108.54
121.02
130.83
138.45
145.47
153.87
164.93
178.41
192.35
203.72
209.51
207.71
198.01
181.58
160.57
137.32
113.72
90.92
69.37
48.93
28.91
8.08
-15.05
-41.58
-71.34
-102.16
-130.01
-150.26
-159.36
-156.46
-143.59
-124.62
-103.40
-82.20
-61.43
-40.50
-19.19
1.54
19.77
33.81
43.26
49.44
54.76
61.43
70.53
81.44
92.58
102.28
109.87
115.88
121.67
128.41
136.29
144.29
150.68
153.92
153.32
149.22
142.64
134.72
126.46
118.68
112.28
108.16
106.95
108.45
111.47
114.06
114.28
111.03
104.36
95.17
84.44
72.58
59.11
43.17
24.03
1.65
-23.19
-49.14
-74.73
-98.75
-120.45
-139.53
-155.99
-170.14
-182.46
-193.50
-203.56
-212.46
-219.42
-223.16
-222.42
-216.45
-205.37
-190.18
-172.36
-153.43
-134.65
-117.03
-101.35
-88.30
-78.36
-71.55
-67.37
-64.94
-63.34
-61.97
-60.65
-59.56
-58.89
-58.67
-58.66
-58.47
-57.77
-56.41
-54.55
-52.76
-51.90
-52.91
-56.29
-61.76
-68.00
-72.99
-74.75
-72.02
-64.78
-54.04
-41.25
-27.69
-14.13
-0.98
11.43
22.60
32.03
39.53
45.42
50.50
55.55
60.82
65.80
69.47
70.80
69.33
65.37
59.68
53.07
45.86
37.88
28.62
17.63
4.74
-9.84
-25.51
-41.29
-55.76
-67.24
-73.89
-74.41
-68.42
-56.61
-40.55
-22.19
-3.30
14.83
31.17
44.73
54.38
59.05
58.28
52.47
42.77
30.43
16.37
0.98
-15.49
-32.31
-47.89
-60.19
-67.54
-69.56
-67.44
-63.31
-59.28
-56.47
-54.91
-53.91
-52.79
-51.20
-48.70
-44.54
-37.54
-26.50
-10.98
8.25
29.42
50.47
69.96
87.44
103.28
117.97
131.66
144.09
155.06
164.89
174.59
185.39
198.02
211.92
225.16
234.90
238.44
234.03
221.31
200.98
174.10
141.49
103.65
61.17
15.22
-32.31
-79.30
-123.92
-164.82
-200.72
-229.79
-249.30
-256.34
-249.19
-228.67
-198.34
-163.42
-128.84
-97.90
-71.89
-51.05
-35.56
-25.94
-22.51
-24.35
-29.08
-33.39
-34.48
-31.19
-24.24
-15.58
-7.27
-0.84
2.61
2.11
-3.43
-14.70
-31.09
-50.26
-68.34
-81.11
-85.46
-80.38
-67.14
-48.44
-27.29
-5.97
14.22
32.76
49.47
64.12
76.25
85.21
90.53
92.10
90.58
87.34
84.29
83.22
85.06
89.36
94.14
96.76
94.90
87.76
76.31
62.57
48.56
35.71
24.90
16.98
12.88
12.99
16.40
20.47
21.59
17.02
6.77
-5.88
-15.90
-19.42
-16.35
-10.76
-8.92
-15.89
-32.97
-57.44
-84.55
-110.33
-133.36
-154.68
-176.00
-197.67
-217.68
-232.32
-238.28
-234.38
-222.09
-204.69
-185.63
-167.03
-149.31
-131.63
-112.76
-91.85
-68.75
-43.89
-18.02
7.91
32.98
56.44
77.81
97.02
114.04
128.75
140.64
148.94
153.03
152.88
149.26
143.57
137.35
131.69
126.96
122.93
119.03
114.81
110.08
104.96
99.74
94.70
89.90
85.15
79.90
73.30
64.38
52.49
37.79
21.56
6.22
-5.33
-10.57
-8.28
1.00
15.27
31.66
47.41
60.43
69.62
74.65
75.83
73.75
69.26
63.37
57.18
51.62
47.22
43.76
40.34
35.51
27.92
16.84
2.68
-13.10
-28.38
-41.17
-50.20
-55.27
-57.09
-56.81
-55.47
-53.59
-51.08
-47.42
-42.04
-34.66
-25.47
-15.19
-4.73
4.98
13.48
20.80
27.42
34.05
41.26
49.33
58.14
67.42
76.84
86.29
95.99
106.60
119.15
134.89
155.07
180.50
211.19
245.77
281.56
