1495180676.00
64.000000
-0.00
-0.00
-0.00
-0.00
-0.00
-0.00
-0.00
-0.00
-0.00
-0.00
0.00
0.01
0.01
-0.00
-0.03
-0.05
-0.05
0.00
0.13
0.36
0.66
1.01
1.37
1.72
2.06
2.40
2.79
3.24
3.80
4.42
5.06
5.66
6.20
6.68
7.15
7.68
8.31
9.14
10.09
11.04
11.88
12.56
13.14
13.76
14.65
15.96
17.91
20.32
22.90
25.38
27.58
29.57
31.68
34.32
37.81
42.54
48.15
54.10
59.83
64.97
69.58
74.14
79.34
85.71
93.76
103.00
112.62
121.73
129.77
136.75
143.30
150.75
157.77
166.64
177.95
191.79
206.97
220.57
228.25
225.36
208.53
176.87
132.76
80.05
23.07
-34.94
-92.44
-149.16
-205.23
-260.37
-313.74
-363.87
-409.83
-450.91
-486.50
-515.74
-537.23
-549.22
-549.96
-538.37
-514.21
-478.67
-433.88
-382.45
-327.02
-269.84
-212.63
-156.66
-102.95
-52.37
-5.90
35.58
71.43
101.35
125.50
144.38
158.69
169.15
176.37
180.75
182.57
182.07
179.51
175.23
169.65
163.18
156.15
148.81
141.30
133.69
126.02
118.33
110.69
103.16
95.80
88.68
81.83
75.25
68.95
62.95
57.25
51.86
46.78
42.03
37.59
33.45
29.61
26.07
22.81
19.83
17.11
14.67
12.48
10.54
8.83
7.35
6.07
4.97
4.05
3.27
2.62
2.09
1.65
1.30
1.01
0.79
0.61
0.47
0.37
0.28
0.22
0.18
0.15
0.13
0.12
0.12
0.13
0.15
0.17
0.20
0.23
0.27
0.31
0.35
0.40
0.44
0.49
0.53
0.59
0.64
0.69
0.75
0.82
0.89
0.97
1.05
1.14
1.24
1.36
1.51
1.67
1.85
2.02
2.17
2.31
2.45
2.63
2.85
3.14
3.50
3.89
4.30
4.70
5.09
5.50
5.96
6.52
7.19
7.95
8.75
9.53
10.25
10.90
11.54
12.25
13.13
14.21
15.44
16.73
17.89
18.77
19.31
19.55
19.59
19.49
19.26
18.68
17.40
15.05
11.42
6.56
0.80
-5.26
-11.01
-16.06
-20.37
-24.21
-27.99
-32.02
-36.25
-40.30
-43.53
-45.48
-45.99
-45.38
-44.33
-43.53
-43.52
-44.55
-46.74
-50.00
-53.79
-56.94
-57.66
-54.01
-44.96
-31.13
-14.85
0.71
12.96
20.96
25.70
29.18
33.03
37.51
41.49
43.34
42.06
37.93
32.26
26.61
21.98
18.47
15.62
12.90
10.24
7.95
6.59
6.37
7.11
8.23
9.04
9.03
8.06
6.31
4.06
1.65
-0.75
-3.00
-5.00
-6.62
-7.81
-8.75
-9.79
-11.41
-13.77
-16.97
-20.83
-24.80
-28.13
-29.96
-29.52
-26.33
-20.30
-11.86
-1.97
8.14
17.34
24.79
30.23
33.75
35.55
35.76
34.30
31.11
26.37
20.77
15.24
10.76
7.82
6.32
5.59
4.77
3.27
1.02
-1.65
-4.19
-6.20
-7.69
-9.02
-10.66
-13.00
-16.16
-20.06
-24.52
-29.40
-34.55
-39.51
-43.38
-44.94
-43.01
-36.98
-27.15
-14.69
-1.38
10.98
21.08
28.28
32.57
34.30
33.93
31.85
28.41
24.05
19.33
14.96
11.65
9.80
9.30
9.51
9.56
8.67
6.60
3.71
0.64
-1.98
-3.94
-5.52
-7.30
-9.77
-13.16
-17.39
-22.19
-27.25
-32.30
-36.89
-40.32
-41.72
-40.30
-35.63
-27.78
-17.34
-5.34
6.99
18.36
27.51
33.49
35.76
34.30
29.58
22.43
13.73
4.23
-5.50
-14.91
-23.37
-30.16
-34.65
-36.54
-36.02
-33.60
-29.89
-25.37
-20.29
-14.88
-9.37
-4.21
0.02
2.75
3.58
2.31
-1.07
-6.47
-13.75
-22.56
-32.28
-41.71
-49.35
-53.56
-53.09
-47.43
-36.99
-23.04
-7.37
8.05
21.46
31.66
38.02
40.64
40.18
37.67
34.32
31.28
29.31
28.68
29.05
29.66
29.68
28.54
26.20
23.19
20.27
18.15
17.05
16.72
16.55
15.98
14.67
12.61
9.90
6.73
3.48
0.91
0.16
2.13
6.64
11.35
11.99
3.56
-17.39
-50.72
-92.08
-134.37
-170.49
-195.99
-210.16
-214.98
-212.97
-205.22
-191.02
-168.95
-138.55
-101.34
-60.33
-18.34
23.47
65.81
109.86
155.21
198.46
233.59
254.02
255.40
237.56
204.63
163.34
120.53
81.18
47.82
21.27
1.86
-9.78
-12.96
-7.72
4.39
20.34
36.41
49.53
58.24
62.92
65.24
66.81
68.33
69.16
67.88
63.15
54.62
43.27
31.01
19.93
11.45
5.89
2.48
-0.04
-2.75
-6.18
-10.37
-15.26
-21.04
-28.08
-36.80
-47.35
-59.29
-71.38
-81.66
-87.71
-87.19
-78.52
-61.13
-36.05
-5.91
25.71
55.35
80.24
99.04
111.47
118.05
120.59
121.01
120.46
118.83
114.86
106.58
92.97
74.19
51.71
29.43
11.19
-1.06
-7.69
-10.37
-11.65
-12.76
-14.94
-19.60
-25.41
-30.32
-33.22
-34.28
-34.23
-34.51
-34.00
-31.09
-24.03
-8.25
19.59
58.69
104.10
149.59
189.26
222.50
250.84
256.61
228.85
170.40
97.10
26.16
-23.40
-56.22
-77.20
-89.46
-94.92
-94.95
-89.29
-79.51
-68.95
-60.71
-57.52
-58.17
-61.13
-65.68
-69.68
-71.38
-71.00
-70.27
-70.95
-74.70
-80.15
-85.60
-89.55
-89.40
-82.84
-69.49
-50.96
-30.08
-10.31
6.69
20.01
29.37
35.66
40.15
43.56
45.88
46.79
45.82
43.43
40.29
37.16
34.79
33.60
33.25
32.80
31.16
27.58
22.18
15.62
8.86
2.69
-2.49
-6.72
-10.41
-14.08
-18.22
-23.20
-29.21
-36.09
-43.29
-49.90
-54.75
-56.70
-54.95
-49.29
-40.36
-29.56
-18.77
-9.98
-4.67
-3.50
-6.32
-12.40
-20.86
-31.05
-42.64
-55.44
-69.23
-83.56
-97.88
-111.66
-124.57
-136.44
-147.19
-156.74
-164.91
-171.60
-176.84
-181.07
-185.08
-189.71
-195.35
-201.44
-206.19
-206.83
-200.38
-184.82
-160.06
-128.17
-92.63
-57.19
-24.56
4.21
29.56
52.91
75.70
98.81
122.52
146.88
171.80
196.54
219.37
237.68
248.91
251.16
243.76
227.53
204.59
177.82
149.57
121.25
93.67
68.32
46.69
29.47
16.30
6.06
-1.85
-7.88
-12.13
-13.59
-9.60
2.45
21.99
44.98
66.86
85.95
101.74
115.96
127.07
133.91
136.36
135.05
131.23
122.70
110.06
92.80
67.73
31.49
-15.91
-70.39
-125.19
-173.04
-208.19
-227.43
-222.47
-194.18
-153.49
-113.96
-83.22
-61.46
-45.61
-35.60
-28.81
-24.60
-24.44
-28.77
-35.92
-43.39
-47.42
-47.38
-44.13
-38.21
-30.76
-23.78
-18.54
-14.88
-11.94
-9.46
-8.38
-9.97
-14.59
-22.03
-31.75
-42.14
-50.75
-55.31
-55.09
-51.32
-46.21
-41.71
-39.22
-39.30
-41.25
-43.35
-43.50
-39.92
-31.93
-20.10
-6.23
7.03
17.28
23.72
27.46
30.72
35.49
42.32
50.01
56.22
58.70
56.38
49.67
39.81
28.00
15.43
3.84
-4.43
-6.50
0.74
19.74
51.33
93.64
141.68
188.49
227.30
252.86
262.61
256.96
238.71
211.80
179.23
141.95
99.89
53.84
5.47
-42.89
-88.78
-130.13
-163.02
-181.42
-183.31
-173.71
-160.47
-149.30
-141.42
-134.81
-126.46
-114.55
-99.99
-86.04
-77.09
-73.05
-71.86
-70.28
-65.02
-53.35
-33.29
-4.01
33.56
75.54
116.00
147.41
163.11
159.87
139.42
108.05
73.22
41.14
15.52
-2.13
-11.78
-13.39
-6.83
7.36
27.02
46.87
61.39
67.13
64.12
55.22
44.60
36.10
31.67
31.25
31.92
32.12
32.58
35.50
42.13
51.40
59.84
62.09
52.28
23.73
-25.54
-90.03
-158.47
-217.71
-256.82
-269.90
-257.63
-214.47
-148.91
-79.51
-25.17
4.80
11.45
1.40
-16.26
-32.70
-41.41
-44.24
-43.12
-40.94
-41.00
-45.13
-52.56
-59.06
-60.26
-55.13
-48.47
-43.68
-44.40
-51.47
-60.95
-65.79
-57.89
-33.13
6.11
51.41
93.75
126.99
149.37
164.04
168.90
164.42
154.10
141.77
128.24
112.11
96.49
80.43
64.88
51.90
44.62
44.88
49.97
57.10
63.98
69.18
70.65
66.89
57.48
44.77
32.21
22.86
19.15
22.23
31.54
42.77
49.74
46.34
29.29
-2.21
-46.73
-100.16
-155.97
-199.09
-213.33
-193.51
-150.00
-99.03
-52.92
-17.15
8.00
24.38
33.37
33.43
21.87
-1.61
-32.47
-62.87
-85.14
-95.19
-93.53
-84.31
-73.90
-67.45
-66.24
-67.51
-68.10
-64.68
-57.06
-47.28
-38.09
-32.16
-30.78
-33.20
-37.04
-39.73
-39.55
-36.30
-30.63
-23.51
-16.23
-9.86
-4.79
-0.94
1.88
3.68
4.17
3.24
1.27
-2.72
-8.39
-14.28
-18.84
-21.21
-21.44
-20.20
-18.15
-15.65
-12.73
-9.03
-3.04
6.09
18.18
32.05
46.33
60.21
73.19
84.46
92.86
99.00
102.93
104.00
101.03
93.48
82.42
70.40
60.81
57.12
65.14
88.29
126.17
173.64
223.13
267.55
302.26
325.85
322.64
286.85
225.78
157.44
97.78
53.19
21.85
-1.95
-24.28
-49.66
-74.68
-97.21
-114.01
-122.80
-122.20
-112.04
-94.21
-72.95
-56.32
-50.32
-57.54
-75.69
-99.93
-124.58
-144.80
-158.54
-167.01
-173.78
-181.20
-192.37
-206.11
-220.66
-233.37
-240.64
-238.98
-226.30
-203.16
-172.34
-138.61
-107.74
-86.12
-78.78
-87.70
-111.51
-146.70
-186.78
-223.98
-250.07
-259.49
-251.44
-229.04
-197.26
-160.75
-122.80
-85.16
-48.56
-10.29
31.42
74.75
114.07
143.01
157.93
159.73
153.67
147.01
150.78
170.96
204.91
242.87
274.46
294.66
305.31
312.56
322.80
346.25
388.56
448.54
519.22
592.75
663.47
727.19
779.23
774.39
685.65
520.90
322.28
136.84
-8.61
-110.28
-178.17
-225.52
-262.01
-284.93
-288.53
-271.25
-239.73
-205.52
-178.73
-165.55
-166.86
-179.10
-191.38
-194.33
-184.88
-167.88
-151.74
-143.27
-144.99
-155.13
-169.28
-179.62
-180.99
-171.66
-155.10
-136.65
-120.39
-108.00
-99.16
-92.56
-85.62
-76.98
-67.14
-58.33
-52.59
-50.68
-52.05
-55.53
-59.61
-62.52
-63.06
-60.63
-55.24
-46.99
-36.00
-22.62
-7.44
9.28
26.75
43.39
57.23
66.42
70.16
68.90
63.95
57.17
51.15
47.32
45.43
44.00
41.35
36.59
29.93
22.31
15.89
15.00
23.36
42.33
69.89
101.30
130.77
152.98
163.73
154.22
122.24
74.64
23.97
-19.20
-50.52
-70.14
-77.58
-73.13
-58.95
-35.02
-5.47
23.59
46.10
58.51
60.73
55.34
45.60
34.44
24.85
18.14
14.51
13.32
13.72
14.91
15.72
14.06
7.81
-3.52
-19.05
-36.17
-51.55
-62.21
-66.88
-66.78
-65.56
-67.51
-75.27
-89.01
-106.10
-122.40
-133.54
-136.36
-129.75
-115.01
-95.48
-75.68
-60.47
-53.66
-57.35
-70.52
-89.00
-106.52
-116.69
-115.03
-100.25
-74.12
-40.28
-3.85
30.36
58.50
78.08
88.19
89.49
83.93
74.17
62.84
50.76
38.01
24.61
11.15
-1.74
-14.83
-31.54
-57.02
-87.80
-117.31
-134.86
-130.60
-101.18
-52.94
0.29
42.78
64.29
64.20
49.54
30.94
15.52
5.54
-0.72
-6.16
-12.49
-18.89
-22.98
-23.53
-20.81
-16.84
-14.23
-14.99
-18.30
-22.90
-26.99
-29.45
-31.10
-34.19
-41.60
-55.01
-73.68
-93.45
-108.63
-114.03
-107.09
-89.00
-63.78
-36.72
-12.23
7.35
22.94
36.49
48.99
59.69
66.96
69.86
68.79
65.38
61.68
60.80
64.52
72.03
80.61
87.83
93.10
97.75
103.85
113.12
128.55
152.16
183.26
218.55
253.99
286.56
314.83
339.02
344.15
322.48
279.09
228.45
182.84
145.42
112.63
79.99
45.86
15.57
-7.93
-21.75
-26.02
-24.17
-20.65
-18.56
-19.15
-22.42
-28.13
-34.40
-39.03
-41.33
-42.28
-43.09
-44.26
-45.57
-46.72
-47.68
-48.01
-47.19
-45.74
-45.16
-46.80
-50.95
-56.91
-63.35
-69.02
-72.65
-73.19
-70.53
-65.41
-58.98
-52.30
-46.18
-41.16
-37.51
-35.03
-33.14
-31.39
-29.68
-28.34
-27.87
-28.71
-31.00
-34.43
-38.40
-42.16
-45.23
-47.57
-49.50
-51.48
-53.73
-56.06
-57.97
-58.87
-58.50
-57.11
-55.42
-54.31
-54.27
-55.17
-56.28
-56.54
-55.05
-51.36
-45.63
-38.51
-31.04
-24.30
-19.18
-16.20
-15.32
-15.83
-16.50
-16.01
-13.42
-8.63
-2.43
3.75
8.51
11.03
11.37
10.09
7.84
4.88
0.97
-4.28
-10.81
-17.79
-23.70
-27.03
-27.02
-24.19
-20.11
-16.71
-15.41
-16.55
-19.38
-22.49
-24.52
-24.59
-22.46
-18.35
-12.76
-6.20
0.82
7.82
14.32
19.82
23.94
26.40
27.17
26.51
24.97
23.15
21.58
20.45
19.67
18.94
17.98
16.59
14.60
11.91
8.40
4.24
-0.05
-3.69
-5.97
-6.66
-6.29
-6.05
-7.15
-10.31
-15.26
-20.82
-25.35
-27.41
-26.33
-22.31
-16.31
-9.61
-3.27
2.08
6.33
9.70
12.47
14.67
16.10
16.46
15.73
14.31
13.01
12.67
13.88
16.71
20.73
25.24
29.59
33.27
35.92
37.20
36.75
34.20
29.35
22.01
12.02
-0.88
-16.79
-35.18
-54.44
-71.80
-83.95
-88.32
-84.01
-72.27
-56.01
-38.54
-22.41
-8.73
2.70
12.69
21.94
30.62
38.40
44.71
49.04
51.10
50.98
48.95
45.51
41.07
35.96
30.24
23.98
17.27
10.40
3.66
-2.93
-9.76
-17.57
-27.13
-38.76
-52.08
-66.02
-79.26
-90.53
-98.78
-103.27
-103.44
-98.88
-89.26
-74.41
-54.67
-31.18
-6.28
16.74
34.57
45.03
48.20
46.42
43.08
40.95
40.82
41.52
41.09
38.70
35.38
33.54
35.38
41.37
49.88
58.11
63.61
65.25
63.54
59.80
55.27
50.58
45.70
40.40
34.49
27.99
21.02
13.80
6.36
-1.33
-9.41
-17.91
-26.51
-34.44
-40.68
-44.52
-46.26
-47.23
-49.19
-52.95
-57.09
-57.87
-50.73
-32.89
-5.74
24.76
50.31
63.87
62.97
50.48
32.86
16.63
5.43
-0.82
-4.59
-8.17
-11.81
-13.61
-11.12
-3.55
7.14
16.95
21.79
19.53
11.00
-0.56
-11.13
-17.78
-19.68
-18.01
-14.95
-12.41
-11.25
-11.25
-11.52
-11.25
-10.07
-7.97
-5.13
-1.80
1.70
5.01
7.41
8.28
7.29
4.93
2.45
1.27
2.07
4.36
6.69
7.53
6.09
2.61
-2.42
-9.20
-19.22
-34.54
-56.40
-83.73
-112.79
-138.37
-155.73
-162.54
-159.38
-148.99
-134.56
-118.50
-101.93
-84.97
-67.41
-49.22
-30.70
-12.45
4.72
19.91
32.32
41.60
48.22
53.68
59.95
68.71
80.37
93.69
106.15
114.95
118.22
115.63
108.39
98.56
88.15
78.36
69.40
60.51
50.49
38.20
23.17
5.80
-12.72
-30.68
-46.27
-57.86
-64.43
-65.96
-63.47
-59.05
-55.10
-53.45
-54.54
-57.30
-59.71
-59.94
-57.28
-52.20
-45.82
-38.81
-30.99
-21.73
-10.84
0.92
11.85
20.15
24.75
25.66
23.92
21.14
19.01
18.82
21.41
26.91
34.74
43.62
51.57
56.41
56.21
49.47
35.64
15.59
-8.32
-32.50
-52.85
-65.99
-69.52
-62.21
-43.99
-15.77
20.67
62.62
106.02
145.40
174.23
187.21
182.15
161.20
130.74
99.80
77.02
67.15
68.84
74.68
75.37
64.30
40.58
9.34
-20.84
-41.92
-49.93
-44.34
-31.44
-20.48
-16.53
-18.07
-20.47
-20.68
-19.69
-21.29
-29.23
-44.50
-63.51
-80.01
-88.33
-86.26
-75.82
-61.94
-49.42
-40.83
-36.05
-32.15
-25.15
-12.54
5.90
28.26
51.09
70.75
83.84
87.91
82.58
69.90
53.44
36.87
23.52
12.16
1.01
-11.17
-24.19
-36.02
-43.93
-46.20
-42.96
-36.11
-28.22
-20.96
-15.09
-11.01
-9.35
-11.20
-17.99
-29.41
-42.81
-53.82
-57.84
-52.54
-39.00
-20.95
-3.01
11.43
21.16
26.67
28.88
28.49
25.37
19.01
9.15
-3.80
-18.60
-33.22
-45.26
-52.62
-54.12
-50.00
-41.94
-32.50
-24.21
-18.78
-16.76
-17.66
-20.51
-24.29
-28.19
-31.66
-34.19
-35.22
-34.15
-30.35
-23.38
-13.16
-0.15
14.71
30.12
44.65
56.98
65.89
70.01
67.75
57.39
37.98
10.22
-22.92
-56.40
-84.53
-102.71
-108.96
-104.34
-92.20
-76.59
-60.80
-46.53
-33.95
-22.25
-10.34
2.67
17.43
34.23
52.86
72.24
90.18
103.56
109.07
104.49
89.87
68.07
44.45
25.33
16.01
18.92
32.72
52.81
73.09
88.41
96.62
99.32
100.99
106.86
120.52
142.43
170.03
199.01
225.15
245.56
258.86
264.67
263.05
254.33
239.50
220.49
199.91
180.22
162.76
147.46
133.11
118.46
103.07
87.31
72.11
58.17
45.51
33.42
20.80
6.63
-9.67
-27.94
-47.25
-66.01
-82.25
-94.20
-100.84
-102.26
-99.66
-94.90
-89.97
-86.53
-85.76
-88.36
-94.52
-103.88
-115.33
-127.18
-137.60
-145.09
-149.04
-149.82
-148.52
-146.35
-144.07
-141.67
-138.58
-134.25
-128.57
-121.92
-114.88
-107.83
-100.93
-94.35
-88.51
-84.07
-81.52
-80.59
-80.18
-78.79
-75.50
-70.62
-65.59
-62.02
-60.55
-60.33
-59.41
-55.89
-48.93
-38.87
-26.65
-13.00
1.80
17.63
33.91
49.37
62.36
71.68
77.15
79.64
80.41
80.37
79.77
78.44
76.39
73.98
71.79
70.06
68.46
66.26
62.93
58.52
53.64
48.66
42.97
34.67
21.14
0.07
-29.14
-64.85
-103.11
-138.51
-165.59
-180.31
-181.05
-169.10
-148.23
-123.76
-101.21
-84.60
-75.24
-71.57
-70.10
-66.81
-58.57
-43.94
-23.43
0.48
24.46
45.23
60.40
68.60
69.88
65.64
58.62
52.11
47.84
46.41
47.42
49.64
50.87
48.67
40.94
27.17
8.27
-16.11
-44.96
-75.11
-101.26
-118.18
-122.75
-115.95
-102.09
-87.97
-83.95
-96.23
-123.31
-156.74
-186.58
-206.54
-216.59
-219.85
-220.11
-224.25
-235.70
-253.23
-272.35
-288.84
-299.58
-302.01
-290.90
-234.85
-122.42
27.37
173.54
281.58
339.16
360.37
359.72
348.80
335.42
318.01
296.27
273.04
253.35
240.30
232.47
223.72
208.32
183.21
145.88
98.83
49.84
9.80
-12.08
-11.66
8.32
40.86
76.29
102.67
112.00
103.69
84.86
66.29
57.41
62.35
80.05
105.33
130.08
146.87
150.50
138.25
109.19
64.19
6.41
-57.51
-118.46
-167.63
-198.61
-209.21
-201.69
-181.67
-155.84
-129.95
-107.27
-88.61
-73.26
-60.17
-48.61
-38.25
-28.73
-19.23
-8.54
4.48
20.29
38.12
55.91
70.55
78.61
77.11
64.52
41.43
10.84
-22.28
-51.91
-72.46
-80.11
-73.73
-55.08
-28.21
1.68
29.52
51.36
65.00
70.00
67.53
59.84
49.88
40.69
34.73
33.36
36.58
43.10
50.89
57.87
62.79
65.55
67.27
69.55
73.57
79.22
84.80
87.60
85.14
76.35
62.23
45.56
29.72
17.46
10.01
7.14
7.73
10.43
14.12
17.79
20.49
21.28
19.58
15.38
9.28
2.12
-5.43
-12.99
-20.40
-27.35
-33.23
-37.19
-38.51
-36.79
-32.27
-25.72
-18.41
-12.04
-8.45
-9.30
-15.53
-27.02
-42.41
-59.70
-76.85
-92.34
-105.46
-115.92
-123.34
-127.03
-126.04
-119.64
-107.78
-91.36
-72.00
-51.72
-32.43
-15.51
-1.65
9.17
17.52
24.10
29.46
33.98
37.90
41.67
45.95
51.09
56.68
61.37
63.23
60.62
53.04
41.47
27.95
14.80
3.67
-4.85
-11.07
-15.92
-20.34
-25.21
-31.07
-38.06
-45.64
-52.69
-57.71
-59.34
-56.91
-50.77
-42.03
-32.19
-22.52
-13.71
-5.71
2.05
10.19
18.86
27.35
34.06
36.95
34.38
25.90
12.63
-3.12
-18.75
-32.36
-43.28
-52.06
-59.77
-67.32
-74.92
-82.12
-88.11
-92.22
-94.10
-93.73
-91.22
-86.63
-79.91
-70.95
-59.64
-45.93
-29.84
-11.33
9.61
32.89
58.38
85.79
114.62
143.70
170.97
193.39
207.59
210.86
202.28
183.10
156.33
125.59
93.90
63.07
33.91
6.98
-16.95
-36.93
-52.45
-64.15
-73.87
-84.04
-96.54
-111.88
-129.01
-145.82
-160.01
-170.04
-175.71
-178.10
-179.01
-180.29
-182.93
-186.59
-189.58
-189.27
-182.78
-167.84
-143.43
-110.22
-70.65
-28.51
11.80
46.18
71.67
86.98
92.46
89.77
81.28
69.49
56.67
44.62
34.51
26.93
21.88
19.01
18.03
18.94
22.09
27.72
35.45
43.99
51.49
56.35
58.21
58.47
59.73
64.75
74.97
89.85
107.01
123.35
136.28
144.51
148.23
148.35
145.82
141.30
135.19
128.09
120.98
115.19
111.79
111.04
112.11
113.30
112.70
109.03
102.06
92.68
82.48
73.14
65.89
61.21
58.75
57.46
55.99
53.08
48.10
41.23
33.43
26.12
20.60
17.68
17.29
18.39
19.29
17.95
12.59
2.14
-13.34
-32.65
-53.72
-74.23
-92.40
-107.67
-120.89
-133.96
-148.99
-167.33
-188.81
-211.62
-232.78
-249.05
-257.89
-258.04
-249.56
-233.54
-211.56
-185.44
-157.08
-128.62
-102.43
-80.91
-65.94
-58.19
-56.52
-58.18
-59.48
-57.18
-49.51
-36.70
-20.54
-3.33
13.12
27.99
41.23
52.87
62.44
69.00
71.66
70.12
65.04
57.87
50.23
43.34
37.73
33.28
29.57
26.19
23.00
20.07
17.55
15.48
13.65
11.71
9.50
7.16
5.30
4.54
5.12
6.37
6.87
4.88
-0.78
-10.08
-21.68
-33.36
-42.84
-48.47
-49.50
-45.92
-38.19
-27.03
-13.53
0.78
14.00
24.30
30.45
32.20
30.20
25.66
20.05
14.77
11.10
10.25
13.01
19.43
28.51
38.27
46.16
49.74
47.30
38.07
22.42
1.94
-20.53
-41.14
-55.79
-61.25
-56.37
-42.49
-22.90
-1.56
18.35
35.22
48.90
59.88
68.57
74.83
78.15
78.01
74.21
66.91
56.65
44.24
30.80
17.53
5.58
-4.31
-11.98
-17.93
-23.09
-28.62
-35.76
-45.76
-59.64
-77.78
-99.53
-123.04
-145.56
-164.22
-176.88
-182.53
-181.27
-173.60
-159.91
-140.21
-114.38
-82.70
-46.25
-6.97
32.80
70.76
105.13
134.76
159.14
178.21
192.22
201.69
207.23
209.53
209.15
206.35
200.94
192.42
180.17
163.93
144.08
121.71
98.45
76.02
55.72
38.13
23.06
9.89
-2.12
-13.47
-24.32
-34.45
-43.27
-49.89
-53.11
-51.77
-45.01
-32.74
-15.77
4.21
25.04
44.59
61.27
74.28
83.51
89.31
92.14
92.36
90.03
84.99
77.01
65.84
51.40
33.85
13.71
-8.17
-30.70
-52.71
-73.05
-90.74
-105.16
-116.12
-123.83
-128.80
-131.63
-132.73
-132.09
-129.28
-123.62
-114.61
-102.22
-87.03
-70.05
-52.35
-34.74
-17.58
-1.05
14.65
28.94
41.00
50.08
55.95
59.03
60.24
60.40
59.77
57.90
54.12
48.12
40.49
32.58
25.93
21.43
18.96
17.52
15.97
13.66
10.63
7.41
4.45
1.76
-1.06
-4.49
-8.64
-12.98
-16.39
-17.54
-15.34
-9.28
0.45
13.12
27.71
43.05
57.89
70.81
80.38
85.42
85.43
80.93
73.32
64.48
56.04
48.75
42.41
36.16
29.10
20.79
11.42
1.68
-7.64
-15.86
-22.62
-27.82
-31.60
-34.23
-36.08
-37.62
-39.38
-41.89
-45.49
-50.08
-54.94
-58.73
-59.89
-57.09
-49.93
-39.07
-25.99
-12.35
0.52
11.92
21.51
28.98
33.94
36.13
35.81
33.92
31.95
31.28
32.66
35.95
40.26
44.68
48.62
52.00
55.07
58.02
60.89
63.55
65.90
67.81
69.14
69.56
68.78
66.79
64.12
61.86
61.34
63.62
68.97
76.79
85.71
94.02
99.94
101.72
97.66
86.34
67.03
40.29
8.38
-25.11
-56.12
-81.41
-99.57
-111.07
-117.70
-121.42
-123.36
-123.49
-121.00
-115.17
-106.07
-94.74
-82.68
-71.27
-61.30
-53.01
-46.56
-42.33
-40.75
-41.88
-44.75
-47.48
-47.95
-45.04
-39.50
-33.82
-31.19
-33.88
-42.29
-54.79
-68.47
-80.31
-88.06
-90.51
-87.41
-79.17
-66.80
-51.97
-36.87
-23.89
-15.03
-11.19
-11.87
-15.28
-18.86
-19.97
-16.66
-8.02
5.71
23.34
43.36
64.41
85.62
106.50
126.65
145.39
161.78
174.92
184.24
189.83
192.21
191.88
188.94
183.04
173.72
160.83
144.92
127.09
108.59
90.19
71.97
53.46
34.22
14.33
-5.33
-23.34
-38.29
-49.31
-56.47
-60.67
-63.47
-66.65
-71.78
-79.94
-91.40
-105.44
-120.38
-133.96
-143.98
-149.11
-149.33
-145.83
-140.42
-134.67
-129.45
-124.85
-120.50
-115.88
-110.46
-103.48
-94.02
-81.24
-64.96
-46.19
-27.01
-10.11
2.25
8.95
10.22
7.31
1.74
-5.17
-12.42
-19.21
-24.68
-27.81
-27.65
-23.67
-15.96
-5.27
7.07
19.39
29.91
36.90
38.95
35.22
25.93
12.52
-2.53
-16.47
-27.16
-33.77
-36.89
-37.90
-38.10
-38.06
-37.59
-36.23
-34.02
-31.65
-30.26
-30.66
-32.69
-35.16
-36.28
-34.44
-28.88
-19.97
-9.05
2.01
11.39
17.92
21.40
22.71
23.44
25.25
29.17
35.12
41.97
48.07
52.01
53.07
51.20
46.52
39.13
29.14
17.27
5.30
-4.12
-8.29
-5.69
3.19
16.02
29.52
40.86
48.45
52.03
52.05
49.03
43.37
35.55
26.55
17.98
11.59
8.57
9.07
12.07
16.00
19.44
21.62
22.49
22.28
20.98
18.04
12.60
4.02
-7.49
-20.76
-33.87
-44.89
-52.53
-56.48
-57.25
-55.79
-53.02
-49.70
-46.40
-43.69
-42.11
-42.02
-43.31
-45.37
-47.14
-47.60
-46.25
-43.54
-40.80
-39.78
-41.99
-48.00
-57.19
-67.89
-78.00
-85.71
-90.09
-91.46
-91.23
-91.38
-93.75
-99.25
-107.57
-117.23
-126.16
-132.27
-133.89
-130.01
-120.22
-104.77
-84.61
-61.35
-37.12
-14.02
6.48
23.95
39.07
53.18
67.80
84.21
103.27
125.30
150.01
176.36
202.38
225.50
242.95
252.55
253.23
245.39
230.54
210.69
187.72
162.95
137.17
110.93
84.93
60.14
37.68
18.34
2.39
-10.43
-20.63
-28.51
-34.04
-37.04
-37.66
-36.69
-35.45
-35.37
-37.32
-41.21
-46.03
-50.38
-53.04
-53.50
-51.91
-48.87
-44.94
-40.50
-35.71
-30.62
-25.41
-20.35
-15.78
-11.97
-9.24
-8.11
-9.32
-13.61
-21.13
-31.10
-41.70
-50.58
-55.67
-55.91
-51.46
-43.29
-32.50
-19.95
-6.28
7.61
20.20
29.44
33.39
31.08
23.04
11.09
-2.37
-15.26
-26.30
-35.09
-41.74
-46.45
-49.27
-50.09
-48.89
-45.88
-41.68
-37.15
-33.31
-30.91
-30.13
-30.30
-29.88
-26.81
-19.11
-5.56
13.77
37.41
62.91
87.54
109.05
126.25
139.13
148.49
155.22
159.63
161.15
158.43
149.88
134.39
111.95
83.98
53.12
22.76
-3.80
-24.16
-37.46
-44.46
-47.31
-48.85
-51.86
-58.30
-68.92
-83.16
-99.35
-115.12
-127.90
-135.41
-136.12
-129.53
-116.29
-97.98
-76.86
-55.46
-36.10
-20.53
-9.59
-3.13
-0.08
1.09
1.96
3.60
6.38
9.98
13.61
16.34
17.33
16.06
12.32
6.44
-0.82
-8.36
-15.13
-20.68
-25.50
-30.98
-38.77
-49.82
-63.55
-77.69
-88.93
-94.17
-91.67
-81.56
-65.67
-46.68
-27.31
-9.75
4.37
13.97
18.50
18.01
13.41
6.35
-1.10
-7.05
-10.29
-10.45
-7.80
-2.97
3.36
10.63
18.45
26.62
35.20
44.33
54.09
64.13
73.55
80.95
85.04
85.37
82.89
79.96
79.45
83.47
92.27
103.91
115.11
122.75
125.29
123.15
118.16
112.28
106.50
100.55
93.54
84.95
75.21
65.52
57.10
50.40
44.80
39.11
32.27
24.01
14.92
6.11
-1.43
-7.27
-11.61
-15.19
-18.92
-23.60
-29.49
-36.20
-42.49
-46.63
-46.91
-42.42
-33.62
-22.33
-11.16
-2.59
1.88
2.01
-1.33
-6.87
-13.42
-20.18
-26.71
-32.63
-37.64
-41.53
-44.46
-47.11
-50.56
-55.86
-63.60
-73.53
-84.56
-95.10
-103.61
-109.24
-112.08
-113.08
-113.61
-114.99
-117.90
-122.23
-126.96
-130.51
-131.14
-127.39
-118.56
-104.98
-87.90
-69.19
-50.79
-34.22
-20.25
-8.89
0.39
8.34
15.61
22.58
29.40
36.04
42.44
48.55
54.27
59.51
64.00
67.26
68.59
67.26
62.76
55.14
45.15
34.10
23.40
14.21
7.21
2.65
0.71
1.79
6.51
15.48
28.83
45.94
65.54
86.08
106.21
125.09
142.51
158.41
172.57
184.19
191.93
194.24
189.97
178.93
161.99
140.85
117.48
93.53
70.11
47.90
27.52
9.85
-4.02
-13.03
-16.78
-15.90
-12.16
-8.13
-6.46
-8.96
-15.98
-26.06
-36.40
-43.76
-45.67
-41.25
-31.60
-19.35
-7.72
0.48
3.51
0.97
-6.50
-17.57
-30.66
-44.15
-56.53
-66.42
-72.72
-74.86
-72.96
-67.90
-61.18
-54.47
-49.24
-46.34
-45.93
-47.64
-50.89
-55.15
-60.07
-65.34
-70.39
-74.20
-75.30
-72.12
-63.49
-49.25
-30.52
-9.49
11.20
29.19
42.96
52.04
56.66
57.46
55.09
50.14
43.21
34.96
26.12
17.34
9.10
1.54
-5.39
-11.91
-18.26
-24.63
-30.99
-37.17
-42.83
-47.77
-52.11
-56.43
-61.51
-67.87
-75.20
-82.09
-86.27
-85.30
-77.55
-62.84
-42.64
-19.62
3.13
22.86
37.65
46.63
49.88
48.13
42.61
34.63
25.42
15.95
6.80
-1.73
-9.60
-16.78
-23.28
-29.09
-34.18
-38.59
-42.40
-45.77
-48.86
-51.90
-55.08
-58.35
-61.19
-62.52
-60.86
-54.73
-43.22
-26.37
-5.43
17.47
39.68
58.71
72.77
81.11
84.09
83.12
79.99
76.18
72.49
68.98
65.20
60.72
55.28
49.10
42.70
36.60
30.99
25.75
20.62
15.36
9.84
3.79
-3.07
-10.67
-18.72
-26.72
-33.73
-38.36
-38.99
-34.39
-24.47
-10.24
7.54
27.47
47.51
65.19
78.55
86.67
89.80
88.78
85.08
82.56
84.10
90.10
98.26
105.41
109.39
109.78
107.16
103.25
103.44
111.44
127.05
145.98
162.90
174.40
180.18
181.93
183.77
194.85
222.09
266.84
324.17
386.38
446.37
499.26
541.45
539.64
474.58
352.34
203.95
63.32
-50.87
-136.10
-193.95
-236.31
-269.10
-289.23
-293.59
-283.85
-267.91
-253.61
-247.57
-252.60
-268.52
-291.34
-312.41
-324.58
-325.19
-316.88
-304.81
-293.99
-287.83
-288.79
-297.06
-309.18
-320.74
-327.55
-326.55
-315.65
-294.14
-263.24
-226.91
-190.24
-157.40
-131.30
-113.24
-103.10
-99.40
-99.85
-101.88
-103.42
-102.80
-98.81
-91.21
-80.75
-69.01
-57.84
-49.09
-44.11
-43.52
-46.78
-52.05
-56.39
-56.43
-49.51
-34.72
-13.36
11.59
36.71
59.31
78.18
93.38
105.54
115.07
121.82
125.30
125.14
121.61
115.54
108.14
100.57
93.62
87.62
82.47
77.81
73.18
68.13
62.46
56.19
49.47
42.34
34.63
26.02
16.52
6.84
-1.40
-6.06
-5.24
1.84
14.48
30.78
48.27
64.82
79.07
90.40
98.62
103.60
105.27
103.69
99.30
92.97
85.89
79.26
73.95
70.31
68.08
66.61
65.16
63.24
60.70
57.64
54.16
50.17
45.40
39.49
32.17
23.27
12.79
1.04
-11.16
-22.33
-30.49
-33.61
-30.42
-20.94
-6.53
10.63
28.40
45.24
60.38
73.42
83.98
91.54
95.74
96.76
95.50
93.25
91.28
90.11
89.45
88.28
85.49
80.38
73.18
64.99
57.53
52.48
50.94
53.01
57.78
63.70
68.94
71.79
70.95
65.67
55.96
42.83
28.27
14.91
5.41
1.59
3.90
11.39
22.25
34.45
46.38
56.89
65.18
70.60
72.67
71.35
67.27
61.87
57.01
54.46
55.38
60.08
68.03
78.30
89.79
101.35
111.68
119.26
122.39
119.58
109.92
93.35
70.62
42.77
10.64
-25.29
-64.59
-106.27
-148.19
-186.96
-218.50
-239.09
-246.43
-240.44
-223.26
-198.68
-171.08
-144.24
-120.40
-100.02
-82.15
-65.34
-48.64
-32.21
-17.25
-5.47
1.78
3.97
1.59
-4.19
-11.79
-19.36
-24.88
-26.28
-21.91
-11.47
3.24
18.26
28.54
29.79
20.29
1.77
-21.31
-43.58
-60.83
-71.38
-75.94
-76.53
-74.94
-71.92
-67.27
-60.61
-52.25
-43.41
-35.85
-31.01
-29.43
-30.53
-33.08
-35.69
-37.20
-36.67
-33.27
-26.46
-16.63
-5.87
1.94
2.09
-9.02
-31.81
-62.65
-94.72
-120.52
-134.68
-135.91
-126.75
-111.89
-95.73
-80.63
-66.71
-52.76
-37.67
-21.37
-4.84
10.66
24.32
36.29
47.35
58.28
69.21
79.55
88.37
95.06
99.52
101.90
101.93
98.41
89.40
72.98
48.53
17.58
-16.04
-47.01
-70.11
-81.76
-81.29
-71.24
-56.69
-43.75
-37.70
-41.37
-54.32
-73.12
-92.37
-106.66
-112.09
-107.26
-93.34
-73.25
-50.45
-27.68
-6.26
14.03
34.18
54.84
75.32
93.24
105.18
107.93
99.95
82.12
57.56
30.64
5.73
-13.95
-26.78
-32.70
-32.83
-29.07
-23.69
-18.97
-16.85
-18.48
-23.79
-31.44
-38.99
-43.62
-43.02
-36.16
-23.55
-6.87
11.88
31.12
50.04
68.26
85.12
99.36
109.22
112.95
109.44
98.68
81.77
60.73
38.12
16.66
-1.26
-14.15
-21.84
-25.56
-27.43
-29.55
-33.25
-38.62
-44.93
-51.24
-56.97
-62.10
-66.75
-70.77
-73.46
-73.57
-69.58
-60.09
-44.44
-23.40
0.40
22.60
37.95
42.10
33.30
13.32
-13.10
-40.11
-62.89
-79.22
-89.32
-94.59
-95.99
-93.18
-85.00
-70.73
-51.40
-29.90
-10.04
5.02
14.00
17.86
19.14
20.83
25.55
35.03
49.91
69.49
91.43
111.57
124.63
125.66
112.09
85.28
50.54
15.49
-12.71
-29.97
-36.29
-35.06
-30.82
-27.18
-25.58
-25.53
-25.83
-25.84
-26.02
-27.53
-31.25
-36.90
-42.86
-46.84
-46.81
-41.73
-31.67
-17.35
0.15
19.44
38.35
53.83
62.42
61.43
50.32
31.31
8.82
-12.22
-28.26
-38.21
-43.28
-45.72
-47.54
-49.65
-52.02
-54.26
-56.32
-58.49
-61.10
-63.98
-66.29
-66.74
-64.24
-58.44
-50.12
-41.02
-33.25
-28.63
-28.04
-31.15
-36.70
-42.97
-48.61
-53.01
-56.41
-59.31
-61.95
-63.86
-63.91
-60.78
-53.70
-43.00
-30.17
-17.44
-7.01
-0.43
1.83
0.44
-3.32
-7.97
-12.36
-15.81
-17.98
-18.46
-16.44
-10.62
0.50
18.11
42.60
73.34
108.66
145.89
181.33
210.35
227.80
229.15
212.01
177.56
130.98
80.44
34.81
0.92
-18.23
-23.88
-20.15
-11.98
-3.35
3.60
8.22
10.67
11.14
9.68
6.40
1.79
-3.15
-7.26
-9.67
-10.26
-9.80
-9.68
-11.12
-14.42
-18.41
-20.75
-19.07
-12.27
-1.72
9.07
15.74
15.09
6.47
-8.05
-24.71
-39.72
-50.42
-55.63
-55.23
-49.58
-39.40
-25.90
-11.10
2.43
12.23
16.82
16.24
11.92
6.09
0.95
-1.84
-1.45
2.13
8.24
15.70
22.95
28.48
31.01
29.92
25.39
18.28
10.07
2.43
-3.03
-5.10
-3.25
2.25
10.15
18.45
24.75
26.99
24.29
17.32
8.27
0.03
-5.00
-5.88
-3.65
-0.79
-0.14
-3.59
-11.20
-21.18
-30.61
-36.63
-37.56
-33.39
-25.58
-16.30
-7.64
-0.83
3.95
7.51
11.41
17.48
27.10
40.47
55.87
69.68
77.17
74.04
58.10
30.49
-4.25
-39.39
-68.04
-85.20
-89.14
-81.42
-66.07
-48.04
-31.75
-20.03
-13.84
-12.63
-14.93
-18.94
-22.84
-24.93
-23.66
-18.25
-9.02
2.30
12.81
19.49
20.35
15.45
6.83
-2.36
-9.17
-11.50
-8.13
1.31
16.23
34.57
52.61
65.63
69.52
62.51
46.67
27.24
10.29
-0.25
-4.14
-4.28
-4.53
-7.44
-13.81
-22.24
-30.24
-35.78
-38.49
-39.26
-39.39
-39.57
-39.73
-40.70
-42.73
-45.09
-46.65
-46.93
-46.07
-44.13
-40.34
-33.33
-24.18
-14.29
-4.84
2.96
7.04
5.09
-4.21
-20.72
-43.66
-75.24
-116.73
-166.15
-218.05
-265.51
-302.17
-323.74
-329.24
-302.64
-242.33
-163.57
-88.77
-31.66
6.71
31.73
48.60
59.83
66.12
65.59
58.54
48.98
42.94
44.78
55.56
73.75
97.00
119.99
137.18
146.42
149.28
149.43
149.90
151.74
154.28
155.74
154.02
146.50
133.57
117.81
102.55
90.13
81.81
78.23
79.40
84.27
90.14
95.64
99.69
101.30
100.25
98.23
98.70
105.01
118.24
136.58
159.09
184.48
210.86
236.06
258.60
277.82
293.02
303.11
288.28
239.79
165.88
87.75
25.11
-13.66
-30.92
-34.71
-33.93
-32.01
-30.60
-29.71
-30.21
-34.38
-44.02
-58.79
-76.18
-93.02
-106.94
-114.24
-113.58
-107.39
-100.63
-98.01
-101.86
-111.70
-125.06
-138.64
-148.34
-151.42
-148.02
-141.12
-134.84
-132.46
-135.38
-143.01
-153.36
-163.48
-170.48
-172.85
-170.56
-164.58
-156.07
-146.28
-136.45
-127.64
-120.13
-112.52
-102.70
-88.86
-70.22
-46.99
-20.28
7.96
35.24
59.11
78.82
94.44
106.17
113.75
117.10
116.57
112.78
106.66
99.52
94.63
95.27
103.07
117.13
135.32
155.35
175.38
194.27
202.05
192.06
165.43
131.14
98.96
74.80
60.09
53.33
51.55
51.54
52.28
53.81
57.72
62.09
64.94
65.10
62.38
57.40
51.35
46.49
44.33
44.39
44.02
40.38
32.32
20.87
8.57
-1.63
-6.87
-5.89
0.32
8.85
16.71
21.77
23.10
20.91
16.64
13.37
14.98
24.89
44.11
70.39
97.91
118.63
124.94
112.42
81.27
35.68
-18.10
-73.91
-126.58
-172.15
-207.69
-231.35
-242.83
-243.94
-238.32
-230.19
-222.69
-216.63
-210.53
-201.80
-188.32
-169.53
-146.62
-121.85
-97.62
-75.78
-57.41
-42.87
-31.95
-24.09
-18.25
-12.97
-6.46
3.00
16.63
34.70
56.41
79.92
102.61
121.46
133.32
135.43
125.95
104.60
73.20
35.54
-3.30
-38.27
-65.60
-83.77
-93.42
-96.59
-95.44
-91.34
-84.59
-74.86
-62.06
-46.88
-30.93
-16.11
-3.84
5.54
12.95
20.01
28.17
37.93
48.43
57.83
64.13
66.08
63.93
59.35
54.90
53.01
54.95
60.42
67.78
74.93
80.15
82.42
81.26
76.04
65.84
49.79
28.13
2.80
-22.65
-44.34
-59.64
-68.26
-72.07
-73.80
-75.48
-77.49
-78.73
-77.66
-73.38
-66.04
-56.75
-46.84
-37.28
-28.49
-20.50
-13.28
-7.15
-2.80
-1.21
-3.02
-8.08
-15.01
-21.53
-25.29
-24.86
-20.57
-14.31
-8.60
-5.16
-4.03
-3.45
-0.60
7.16
21.27
41.36
65.19
88.92
107.78
116.97
113.04
95.20
66.18
31.78
-0.67
-24.72
-36.81
-37.15
-28.99
-16.69
-3.86
7.84
18.56
29.38
41.00
53.11
64.41
73.32
78.72
80.46
79.15
75.75
70.87
64.35
55.41
43.26
27.78
10.01
-7.89
-23.50
-35.17
-42.81
-47.96
-53.06
-60.00
-69.06
-78.66
-86.01
-88.18
-82.78
-68.50
-45.18
-14.19
21.47
57.09
87.16
106.74
113.14
106.83
91.00
70.33
49.22
30.73
16.34
6.53
1.21
-0.22
1.03
2.98
3.45
0.95
-4.61
-12.02
-19.22
-24.47
-27.24
-28.60
-30.81
-36.18
-46.07
-60.12
-76.31
-91.81
-104.09
-111.97
-115.84
-117.17
-117.45
-117.12
-115.20
-109.49
-97.47
-77.36
-48.91
-13.56
25.55
64.06
96.98
119.47
127.98
121.47
102.11
74.99
46.60
22.64
6.16
-3.12
-8.03
-11.89
-16.81
-22.65
-27.51
-28.94
-25.27
-16.32
-3.46
10.89
23.98
33.26
37.03
34.88
27.94
18.78
10.59
6.22
7.10
12.85
21.37
29.71
34.99
35.39
30.76
22.83
14.95
11.09
14.36
25.41
41.50
56.79
64.05
57.31
34.19
-2.87
-47.25
-90.44
-124.86
-146.14
-153.91
-151.10
-142.09
-130.82
-119.53
-108.68
-97.52
-85.08
-70.98
-55.66
-40.13
-25.61
-13.16
-3.53
2.83
5.73
5.28
1.84
-3.72
-10.05
-15.33
-17.69
-15.66
-8.75
2.40
16.20
30.76
44.64
57.31
69.22
81.30
94.37
108.48
122.66
135.03
143.31
145.59
140.77
128.76
110.14
85.74
56.52
23.79
-10.41
-43.10
-70.78
-90.42
-100.49
-101.52
-95.85
-86.58
-76.47
-67.15
-59.02
-51.77
-45.04
-38.83
-33.43
-29.15
-26.04
-23.75
-21.69
-19.42
-16.93
-14.79
-13.76
-14.35
-16.38
-19.10
-21.44
-22.60
-22.38
-21.16
-19.79
-19.32
-20.76
-24.89
-32.08
-42.26
-54.92
-69.18
-83.77
-97.10
-107.26
-112.39
-111.08
-102.96
-89.01
-71.38
-52.67
-35.03
-19.53
-6.02
6.43
18.82
31.72
45.24
59.21
73.34
87.22
100.14
110.98
118.40
121.17
118.68
111.17
99.76
86.07
71.74
58.00
45.56
34.69
25.66
18.96
14.95
13.21
12.02
8.51
-0.28
-15.79
-36.87
-59.66
-79.00
-90.45
-92.08
-84.95
-72.26
-57.66
-43.82
-31.85
-21.64
-12.72
-4.89
1.62
6.36
9.05
9.84
9.32
8.34
7.71
8.00
9.34
11.46
13.84
15.97
17.53
18.51
19.16
19.87
21.01
23.02
26.45
32.15
41.21
54.32
71.14
89.72
106.62
117.79
119.79
110.88
91.26
62.85
28.46
-8.66
-45.15
-77.69
-103.47
-120.79
-129.78
-132.38
-131.67
-130.64
-131.09
-133.37
-136.79
-140.51
-144.22
-148.40
-154.05
-162.19
-173.31
-187.00
-201.79
-215.27
-224.70
-227.67
-222.96
-210.94
-193.39
-172.86
-151.82
-132.02
-114.19
-98.26
-83.58
-69.28
-54.51
-38.76
-22.10
-5.22
10.63
24.19
34.70
42.32
48.16
53.97
61.39
71.31
83.53
96.79
109.23
119.05
124.92
126.32
123.38
116.69
107.22
96.16
84.98
75.24
68.34
65.13
65.48
68.35
72.10
75.09
76.29
75.53
73.33
70.38
67.13
63.58
59.35
54.10
47.87
41.18
34.84
29.63
25.92
23.53
21.84
20.06
17.62
14.35
10.46
6.33
2.38
-1.16
-4.02
-5.85
-6.20
-4.53
-0.54
5.68
13.62
22.59
31.96
41.33
50.59
59.64
68.22
75.74
81.49
84.94
86.00
85.18
83.28
81.11
79.03
76.92
74.35
70.98
66.90
62.56
58.56
55.22
52.33
49.21
45.10
39.52
32.57
24.92
17.58
11.64
7.97
7.08
8.97
13.17
18.93
25.38
31.78
37.57
42.43
46.01
47.96
47.85
45.44
40.82
34.48
27.30
20.16
13.78
8.32
3.50
-1.22
-6.30
-11.89
-17.88
-24.05
-30.35
-37.06
-44.67
-53.61
-63.82
-74.66
-85.04
-93.74
-99.77
-102.68
-102.44
-99.35
-93.74
-85.95
-76.35
-65.48
-54.17
-43.47
-34.36
-27.48
-22.93
-20.23
-18.65
-17.62
-16.91
-16.66
-17.16
-18.63
-20.93
-23.78
-26.90
-30.25
-33.93
-38.11
-42.78
-47.69
-52.30
-55.83
-57.42
-56.31
-51.97
-44.37
-33.96
-21.49
-7.70
6.90
22.21
38.30
55.05
72.00
88.37
103.57
117.50
130.57
143.22
155.37
166.17
174.32
178.73
179.12
176.10
170.81
164.27
156.86
148.38
138.43
126.88
114.10
100.82
87.82
75.65
64.48
54.58
45.99
38.55
31.87
25.43
19.02
12.71
6.74
1.58
-2.14
-4.14
-4.78
-5.00
-6.13
-9.30
-15.27
-24.31
-36.05
-49.19
-62.37
-74.61
-85.31
-94.23
-100.73
-104.43
-105.68
-105.46
-103.93
-101.76
-100.19
-100.32
-102.80
-105.87
-107.40
-105.97
-100.86
-89.75
-72.28
-50.99
-30.20
-14.82
-5.07
0.65
4.47
8.88
19.78
39.99
67.50
97.03
121.94
142.32
160.18
177.23
195.12
219.68
253.44
293.31
332.24
361.05
378.66
386.71
387.76
350.25
263.54
145.93
32.38
-34.27
-64.33
-71.64
-64.99
-56.72
-50.71
-42.25
-27.42
-7.07
13.55
25.87
28.04
19.61
0.35
-27.79
-57.56
-82.45
-99.65
-110.09
-117.86
-122.60
-123.66
-121.55
-116.85
-108.78
-98.45
-89.36
-85.78
-91.26
-103.71
-119.07
-133.65
-144.58
-149.73
-148.85
-143.37
-135.35
-126.89
-117.99
-108.36
-98.18
-87.71
-76.99
-66.09
-55.34
-45.26
-36.67
-29.90
-25.18
-22.48
-21.23
-20.41
-18.79
-15.40
-9.87
-2.42
6.30
15.40
23.84
30.41
33.73
32.54
26.27
15.45
1.69
-12.90
-26.48
-38.03
-47.38
-54.63
-59.53
-61.22
-58.50
-50.56
-37.68
-21.46
-4.39
10.96
22.71
30.00
32.94
32.26
28.81
23.40
16.83
9.99
4.01
0.12
-0.75
1.58
6.30
11.92
16.96
20.59
22.69
23.46
22.78
19.95
13.93
4.19
-8.57
-22.30
-34.14
-41.61
-43.44
-39.78
-31.84
-21.19
-9.21
2.97
14.29
23.62
29.87
32.34
31.00
26.61
20.43
13.82
7.80
2.85
-1.00
-3.97
-6.21
-7.73
-8.32
-7.69
-5.56
-1.92
2.64
6.79
8.55
5.80
-2.88
-17.31
-35.38
-53.46
-67.48
-74.25
-72.30
-62.18
-45.88
-26.08
-5.36
14.26
31.28
44.73
53.99
58.93
59.98
58.17
54.84
51.26
48.10
45.16
41.61
36.52
29.71
22.23
16.27
14.40
18.43
28.54
43.30
60.33
77.11
91.58
101.97
106.71
104.59
95.49
81.04
64.67
50.53
41.73
38.83
39.77
41.21
40.65
37.90
34.86
33.94
36.04
39.57
41.17
37.59
27.47
12.05
-5.59
-21.96
-34.71
-43.22
-48.23
-50.95
-52.24
-52.30
-51.07
-48.72
-45.93
-43.72
-43.00
-44.12
-46.84
-50.59
-54.87
-59.33
-63.64
-67.14
-68.81
-67.56
-62.76
-54.63
-44.19
-32.93
-22.19
-12.84
-5.33
0.04
2.77
2.34
-1.60
-8.73
-17.90
-27.30
-34.94
-39.28
-39.67
-36.48
-30.87
-24.37
-18.29
-13.41
-9.90
-7.56
-6.12
-5.46
-5.40
-5.34
-4.03
0.13
8.17
19.72
32.58
43.40
49.07
48.06
40.99
30.09
17.93
6.23
-4.57
-14.71
-24.24
-32.49
-38.27
-40.67
-39.81
-37.02
-34.33
-33.59
-35.65
-40.22
-46.05
-51.59
-55.56
-57.43
-57.40
-56.18
-54.53
-52.91
-51.28
-49.22
-45.99
-40.83
-33.24
-23.11
-10.99
1.94
13.93
23.09
27.96
27.99
23.84
17.20
10.26
5.04
2.85
4.03
8.02
13.59
19.19
23.29
24.59
22.35
16.41
7.29
-3.94
-15.79
-26.68
-35.24
-40.70
-43.03
-42.89
-41.27
-39.01
-36.27
-32.38
-26.09
-16.19
-2.24
15.11
34.31
53.48
70.74
84.39
92.84
94.63
88.88
75.78
57.02
35.52
14.59
-3.17
-16.58
-25.93
-32.38
-37.10
-40.67
-43.15
-44.39
-44.51
-43.98
-43.53
-43.82
-45.17
-47.61
-50.72
-53.78
-55.81
-55.75
-52.59
-45.61
-34.63
-20.14
-3.16
14.93
32.86
49.65
64.44
76.26
83.72
85.31
80.13
68.63
53.01
36.62
22.74
13.42
8.91
7.91
8.60
9.50
9.86
9.53
8.34
5.77
1.06
-6.43
-16.69
-28.81
-41.21
-51.98
-59.51
-62.84
-61.84
-57.01
-49.14
-38.98
-26.96
-13.37
1.59
17.45
33.44
48.36
60.65
68.51
70.39
65.57
54.70
39.89
24.15
10.27
-0.19
-7.34
-12.55
-17.34
-22.43
-27.38
-31.06
-32.69
-32.51
-31.91
-32.75
-36.46
-43.37
-52.51
-62.07
-69.92
-74.10
-73.21
-66.49
-54.03
-36.71
-16.20
5.33
25.65
42.96
56.23
65.16
69.96
70.95
68.41
62.62
54.16
44.07
33.86
24.96
18.37
14.31
12.34
11.71
11.72
11.92
12.03
11.66
10.21
6.99
1.58
-5.87
-14.63
-23.58
-31.68
-38.26
-43.06
-46.10
-47.41
-46.86
-44.16
-39.07
-31.56
-21.96
-10.95
0.66
12.07
22.44
30.83
35.97
36.53
31.52
20.93
5.94
-11.21
-27.90
-42.07
-52.73
-60.16
-65.45
-69.89
-74.59
-80.45
-88.26
-98.87
-112.95
-130.56
-150.75
-171.45
-189.84
-202.87
-207.89
-203.04
-187.47
-161.34
-125.79
-83.03
-36.14
11.31
55.90
95.20
128.03
154.24
173.93
186.94
192.82
191.44
183.69
171.74
158.33
145.78
135.08
125.87
117.20
108.56
100.47
94.21
90.81
90.14
90.56
89.54
84.66
74.59
59.57
41.24
22.04
4.51
-9.31
-18.21
-21.84
-20.59
-15.25
-6.88
3.42
14.55
25.68
36.12
45.24
52.19
55.78
54.83
48.69
37.77
23.58
8.20
-6.44
-19.23
-29.97
-38.89
-46.08
-51.23
-53.88
-53.95
-52.29
-50.58
-50.75
-54.06
-60.43
-68.42
-75.60
-79.34
-77.68
-69.82
-56.24
-38.40
-18.20
2.53
22.33
40.16
55.25
67.06
75.11
78.96
78.19
72.54
62.23
48.25
32.45
17.17
4.42
-4.90
-11.24
-15.97
-20.47
-25.39
-30.48
-35.21
-39.56
-44.41
-51.12
-60.63
-72.51
-84.82
-94.85
-100.24
-100.09
-95.14
-87.27
-78.63
-70.72
-64.07
-58.32
-52.56
-45.78
-37.07
-25.90
-12.22
3.20
18.79
32.47
42.39
47.58
48.29
45.58
40.53
33.58
24.35
12.24
-2.76
-19.61
-36.44
-51.32
-63.07
-71.66
-77.75
-82.15
-85.24
-87.06
-87.45
-86.32
-83.47
-78.36
-70.03
-57.56
-40.75
-20.68
0.43
20.07
36.47
49.17
58.91
66.73
72.99
77.10
77.88
74.46
67.01
56.81
45.69
35.17
25.83
17.21
8.26
-2.12
-14.43
-28.36
-42.59
-55.12
-63.56
-65.77
-60.52
-47.84
-29.22
-7.14
15.59
36.51
53.87
66.69
74.55
77.51
76.03
70.98
63.59
55.16
46.70
38.78
31.62
25.31
20.01
15.95
13.20
11.47
10.02
7.91
4.40
-0.77
-7.34
-14.76
-22.32
-29.42
-35.49
-39.91
-42.03
-41.28
-37.32
-30.28
-20.94
-10.65
-1.12
6.01
9.62
9.42
5.87
-0.13
-7.67
-16.26
-25.74
-36.05
-46.89
-57.57
-67.12
-74.62
-79.36
-80.79
-78.47
-71.97
-61.27
-47.14
-31.39
-16.66
-5.78
-0.67
-1.49
-6.35
-11.68
-13.46
-8.57
4.06
23.04
45.05
66.07
82.75
93.30
97.63
96.80
92.21
85.29
77.39
70.12
65.24
64.08
66.80
72.02
77.26
80.12
79.58
76.56
73.46
72.86
76.24
83.30
92.34
101.09
107.77
111.80
113.73
114.87
116.50
119.22
122.52
124.74
123.61
117.26
105.14
88.67
70.95
55.70
45.77
42.03
43.11
46.30
48.87
49.35
48.09
46.84
47.76
52.39
61.16
73.48
88.10
103.15
116.26
124.57
125.21
116.38
98.30
73.76
47.33
23.81
6.21
-5.11
-12.14
-17.77
-24.08
-31.43
-38.62
-43.92
-46.06
-44.73
-40.66
-35.10
-29.55
-25.43
-23.89
-25.58
-30.34
-37.09
-43.93
-48.72
-49.62
-45.54
-36.17
-21.84
-3.60
16.52
35.42
49.26
54.51
49.34
34.59
13.69
-8.56
-27.70
-41.02
-47.93
-49.41
-46.89
-41.59
-34.31
-25.93
-17.73
-11.24
-7.61
-7.02
-8.52
-10.53
-11.60
-11.01
-8.81
-5.44
-1.30
3.54
9.22
15.82
23.24
31.16
39.01
45.84
50.21
50.24
44.21
31.53
13.37
-7.34
-26.93
-42.38
-52.29
-56.91
-57.42
-54.82
-49.49
-41.40
-30.75
-18.55
-6.45
3.90
11.48
16.16
18.54
19.38
19.31
18.87
18.65
19.42
21.99
26.75
33.45
41.27
49.02
55.43
59.17
58.75
52.59
39.60
19.72
-5.71
-34.17
-62.72
-88.81
-110.61
-126.97
-137.02
-140.08
-136.07
-125.94
-112.00
-97.36
-84.94
-76.32
-71.26
-68.18
-65.08
-60.60
-54.49
-47.47
-40.66
-34.95
-30.50
-26.72
-22.71
-17.70
-11.47
-4.47
2.42
8.20
11.80
12.21
8.50
0.09
-12.66
-28.16
-43.58
-55.68
-61.91
-61.39
-55.19
-45.87
-36.41
-29.18
-25.38
-25.02
-27.28
-30.99
-34.88
-37.62
-38.04
-35.27
-29.02
-20.00
-9.77
-0.41
6.20
9.13
8.77
6.77
5.38
6.75
12.13
21.57
33.73
46.02
55.03
57.45
51.17
36.34
15.59
-6.72
-25.95
-38.86
-44.48
-43.92
-39.35
-32.89
-25.93
-19.26
-13.55
-9.72
-8.72
-10.97
-15.82
-21.59
-26.15
-27.86
-26.10
-21.54
-15.71
-10.29
-6.47
-4.46
-3.66
-2.99
-1.42
1.58
5.91
10.86
15.35
18.01
17.53
12.92
4.11
-7.70
-20.07
-29.94
-34.70
-33.30
-26.56
-16.85
-6.96
1.14
6.94
11.20
15.08
19.17
23.06
25.50
25.12
21.34
14.67
6.71
-0.65
-5.90
-8.53
-8.95
-8.02
-6.43
-4.27
-1.30
2.64
6.98
10.45
11.65
9.91
5.90
1.40
-1.58
-1.88
0.10
2.76
4.22
3.36
0.36
-3.65
-7.49
-10.62
-13.40
-16.70
-21.08
-26.33
-31.44
-35.21
-36.86
-36.56
-35.26
-34.20
-34.25
-35.36
-36.62
-36.62
-34.24
-29.03
-21.45
-12.50
-3.25
5.57
13.61
20.72
26.74
31.50
34.93
37.25
38.91
40.41
42.06
43.84
45.53
47.00
48.27
49.50
50.70
51.64
51.89
51.06
49.12
46.32
43.05
39.53
35.64
30.95
25.01
17.65
9.14
0.22
-8.15
-15.11
-20.30
-23.99
-27.04
-30.58
-35.61
-42.57
-51.15
-60.32
-68.55
-74.12
-75.49
-71.73
-63.04
-51.03
-38.59
-29.08
-25.02
-27.10
-33.85
-42.38
-49.74
-54.35
-56.52
-57.99
-60.75
-65.96
-73.49
-82.20
-90.95
-99.21
-107.22
-115.41
-123.94
-132.34
-139.71
-145.06
-147.49
-146.27
-140.87
-131.12
-117.58
-102.03
-87.49
-77.46
-74.58
-79.00
-87.70
-94.91
-93.79
-78.89
-48.31
-4.60
46.12
96.36
140.16
174.53
199.45
216.67
228.02
234.36
235.55
231.34
222.36
210.88
199.40
189.22
179.70
168.80
154.44
135.72
113.46
89.81
68.33
51.81
41.29
36.03
34.42
34.93
36.33
37.66
38.25
39.04
41.14
45.16
50.95
57.97
65.93
74.76
84.53
87.75
80.03
62.26
39.61
16.82
-4.12
-22.45
-37.40
-48.19
-54.40
-55.50
-52.49
-48.07
-46.00
-49.00
-57.93
-71.34
-86.12
-98.75
-105.70
-105.28
-97.81
-84.08
-67.48
-50.72
-35.06
-20.88
-8.05
3.49
13.29
21.21
27.26
31.66
35.10
37.84
39.14
37.68
32.76
22.82
9.68
-3.07
-11.61
-13.08
-6.96
4.66
17.93
28.89
34.60
34.03
27.42
15.94
1.64
-12.90
-25.15
-33.29
-36.79
-36.49
-33.90
-30.57
-27.41
-24.34
-20.78
-16.53
-12.22
-9.15
-8.57
-10.80
-15.21
-20.67
-26.26
-31.85
-38.19
-46.18
-56.17
-67.50
-78.52
-87.42
-92.94
-94.78
-93.48
-90.09
-85.70
-81.19
-77.15
-73.74
-70.70
-67.27
-62.25
-54.39
-42.88
-27.87
-10.57
7.10
23.18
36.29
45.86
52.03
55.23
55.91
54.65
52.17
49.50
47.52
46.48
45.57
43.03
36.87
25.84
10.21
-8.24
-26.89
-43.35
-56.27
-65.77
-72.89
-78.94
-84.73
-90.12
-94.12
-95.32
-92.45
-84.71
-71.97
-54.70
-33.91
-11.13
11.44
31.31
46.29
55.37
59.23
60.14
61.05
64.35
70.84
79.49
88.03
94.08
96.28
94.86
91.37
87.95
86.43
87.79
91.90
97.58
102.94
105.79
104.39
98.06
87.65
75.27
63.71
55.16
50.20
47.35
43.33
33.94
15.24
-14.89
-55.40
-101.20
-144.02
-174.51
-185.07
-172.30
-138.16
-89.14
-33.93
19.45
66.21
104.89
136.33
161.91
182.17
196.10
201.45
196.10
179.54
154.91
127.37
102.37
83.96
73.96
71.61
73.99
77.09
76.90
72.27
62.40
46.76
26.13
4.37
-11.74
-14.51
1.69
38.06
93.16
158.52
219.69
260.96
271.69
250.52
205.62
151.55
104.67
81.30
87.86
118.77
160.76
200.47
229.28
243.95
244.28
205.58
120.96
5.99
-111.04
-208.61
-278.92
-323.26
-346.42
-355.79
-356.26
-346.41
-326.29
-299.75
-273.07
-251.21
-235.74
-224.40
-215.23
-206.39
-194.12
-177.46
-158.87
-142.45
-130.95
-124.58
-122.03
-121.92
-122.96
-122.54
-119.60
-114.93
-110.23
-106.44
-103.15
-99.33
-94.27
-87.64
-78.80
-68.01
-56.26
-44.63
-33.37
-21.81
-8.84
6.56
25.14
47.40
72.90
100.06
126.42
149.25
166.36
176.49
179.69
177.12
170.59
162.01
152.91
144.30
136.60
129.76
123.32
116.61
108.90
99.48
87.90
74.03
58.21
41.16
24.03
8.14
-5.22
-15.23
-21.69
-25.16
-26.80
-27.92
-29.68
-32.69
-37.04
-42.41
-48.24
-53.90
-58.65
-61.78
-62.58
-60.72
-56.40
-50.48
-44.17
-38.52
-33.80
-29.42
-24.29
-17.65
-9.64
-1.39
5.58
10.29
12.99
15.18
18.93
25.94
36.78
50.70
66.08
81.32
95.39
108.30
120.78
133.82
148.16
163.93
180.52
196.74
211.10
221.82
227.10
225.16
214.60
194.92
166.95
132.96
96.25
60.35
28.07
0.99
-20.67
-37.55
-50.53
-60.25
-66.96
-70.64
-71.34
-69.38
-65.34
-59.97
-53.98
-48.01
-42.58
-38.08
-34.77
-32.67
-31.60
-31.19
-31.09
-31.05
-31.05
-31.31
-32.04
-33.35
-35.01
-36.58
-37.56
-37.73
-37.31
-36.91
-37.25
-38.77
-41.32
-44.20
-46.42
-47.09
-45.73
-42.31
-37.09
-30.45
-22.74
-14.33
-5.69
2.61
10.01
16.11
20.80
24.29
26.86
28.72
29.82
29.97
28.94
26.77
23.81
20.74
18.40
17.49
18.37
20.89
24.48
28.20
30.99
31.82
29.92
25.10
17.94
10.01
3.61
1.37
5.43
16.60
33.69
53.34
70.76
80.90
80.17
67.53
44.79
15.80
-15.19
-45.29
-73.83
-102.31
-133.17
-168.13
-207.11
-247.83
-286.35
-318.14
-339.32
-347.60
-342.91
-327.39
-304.81
-279.58
-255.40
-234.22
-215.86
-198.42
-179.35
-156.65
-129.67
-99.27
-67.36
-36.23
-7.95
15.89
34.24
46.62
53.14
54.55
52.12
47.45
42.13
37.36
33.73
31.27
29.58
28.11
26.29
23.70
20.05
15.22
9.21
2.16
-5.63
-13.68
-21.30
-27.53
-31.20
-31.14
-26.52
-17.26
-4.31
10.60
25.42
38.34
48.25
54.83
58.38
59.44
58.54
55.94
51.90
46.81
41.24
35.89
31.21
27.36
24.12
21.06
17.53
13.09
7.64
1.20
-6.10
-14.05
-22.20
-29.72
-35.41
-38.61
-38.67
-35.25
-28.52
-19.32
-9.03
0.94
9.47
15.80
18.40
16.55
10.59
1.71
-8.66
-19.37
-29.39
-37.95
-44.61
-51.14
-58.98
-68.65
-79.86
-92.17
-105.13
-117.73
-128.23
-134.58
-137.28
-136.73
-132.81
-125.14
-113.90
-99.96
-84.05
-66.43
-33.86
16.92
78.30
136.66
181.93
210.93
224.96
227.21
221.35
211.11
197.69
182.71
168.60
157.62
151.07
147.71
145.68
143.20
139.18
131.82
120.89
107.98
95.47
85.20
77.78
73.24
71.41
72.17
74.52
77.81
81.95
87.06
92.84
98.37
102.58
104.55
103.58
98.82
89.92
77.19
61.53
44.15
26.37
9.60
-4.90
-16.36
-24.83
-31.00
-35.81
-40.09
-44.35
-48.77
-53.17
-57.23
-60.51
-62.37
-61.99
-58.35
-50.52
-38.04
-21.37
-1.85
18.43
37.11
52.02
61.43
64.28
60.20
49.60
33.67
14.48
-5.21
-22.43
-34.59
-40.17
-39.18
-33.22
-25.02
-17.65
-13.63
-14.33
-19.80
-29.02
-40.48
-52.77
-64.72
-75.38
-84.04
-89.87
-92.06
-90.14
-84.25
-75.22
-64.27
-52.74
-41.84
-32.84
-26.98
-25.44
-29.02
-37.75
-50.49
-64.80
-77.30
-84.48
-83.92
-74.63
-57.27
-34.03
-8.30
16.09
35.70
48.04
52.00
47.26
35.45
20.06
5.51
-4.35
-7.50
-3.94
4.70
15.84
25.52
31.30
33.22
32.94
31.77
29.54
24.91
15.98
1.27
-22.01
-53.85
-90.40
-125.54
-153.97
-172.89
-181.90
-182.27
-176.22
-169.71
-167.45
-170.89
-178.81
-189.19
-199.82
-207.84
-210.12
-184.57
-124.74
-44.76
31.12
86.91
119.88
135.30
140.32
140.62
139.50
135.21
126.56
115.24
104.60
96.63
90.82
85.72
79.66
72.01
61.04
46.99
32.23
19.52
9.67
1.44
-6.79
-15.41
-22.97
-28.40
-30.06
-26.18
-15.69
-0.04
17.40
32.88
43.82
49.37
49.25
43.98
34.62
22.42
8.38
-6.37
-20.47
-32.50
-41.46
-47.50
-51.49
-54.47
-57.13
-59.82
-62.58
-65.47
-68.77
-72.96
-78.17
-83.66
-87.54
-87.16
-80.00
-64.84
-42.71
-16.28
11.02
36.04
56.73
72.37
83.21
89.88
92.82
92.03
87.87
81.57
75.10
70.72
69.93
72.79
77.99
83.21
85.53
83.43
77.23
68.22
57.93
47.61
38.24
31.85
30.68
34.96
44.81
59.99
78.51
97.21
112.80
122.85
128.19
130.62
128.51
121.72
112.20
101.34
89.89
78.15
66.28
57.60
55.20
55.48
56.67
59.70
64.24
69.02
72.60
74.01
77.04
85.69
95.96
107.45
124.44
150.02
185.31
228.79
251.44
231.31
201.55
176.00
145.26
108.83
68.38
26.96
-11.49
-43.04
-60.84
-60.75
-58.34
-63.39
-77.30
-98.36
-123.99
-152.13
-181.00
-205.24
-219.45
-226.08
-226.84
-221.32
-211.30
-199.71
-188.81
-178.93
-166.71
-148.63
-125.77
-99.56
-70.85
-41.43
-13.07
13.06
36.38
57.39
76.33
90.69
99.39
103.46
104.60
104.03
101.86
97.26
89.38
77.70
60.72
37.95
10.36
-20.05
-51.11
-80.80
-107.41
-129.81
-141.68
-138.50
-120.83
-94.58
-66.52
-40.99
-19.58
-2.20
12.15
25.18
38.01
51.53
65.38
80.06
94.85
108.26
118.90
126.54
132.30
137.11
141.35
144.54
145.57
142.59
134.01
119.04
98.29
73.61
46.98
20.12
-5.75
-29.66
-50.98
-69.02
-82.87
-91.36
-93.69
-90.19
-82.23
-71.73
-60.20
-48.45
-36.51
-24.12
-11.38
0.87
10.98
17.27
18.83
15.99
10.06
2.80
-4.33
-10.42
-15.19
-18.73
-21.15
-22.44
-22.50
-21.25
-18.81
-15.57
-12.04
-8.62
-5.44
-2.32
0.99
4.52
7.95
10.67
12.05
11.79
9.96
6.93
3.06
-1.46
-6.53
-11.98
-17.45
-22.47
-26.77
-30.67
-35.06
-41.23
-50.37
-63.01
-78.81
-96.70
-115.26
-133.23
-149.90
-165.06
-178.72
-190.58
-199.84
-205.30
-205.99
-201.76
-193.64
-183.57
-173.69
-165.53
-159.48
-154.88
-150.47
-145.09
-138.17
-129.74
-120.27
-110.38
-100.82
-92.47
-86.45
-83.90
-85.55
-90.99
-98.19
-103.62
-103.12
-93.23
-72.57
-42.48
-6.63
30.21
63.81
91.68
113.69
131.74
148.98
168.70
193.17
222.83
255.63
287.20
311.59
322.68
315.91
289.88
247.04
193.23
136.13
82.96
38.40
3.51
-23.82
-47.14
-69.29
-90.93
-110.37
-124.68
-131.46
-130.20
-122.50
-111.27
-99.41
-88.60
-78.77
-68.44
-55.48
-38.11
-15.54
11.70
42.09
73.62
104.44
133.22
159.27
182.23
201.67
216.75
226.23
228.89
224.16
212.63
196.18
177.26
158.05
139.63
121.74
103.32
83.41
62.00
40.25
20.00
2.77
-10.99
-22.18
-32.53
-43.81
-56.97
-71.72
-86.71
-99.83
-108.92
-112.33
-109.48
-101.06
-88.98
-75.87
-64.50
-57.15
-54.76
-56.65
-60.64
-63.61
-62.55
-55.45
-42.05
-24.04
-4.87
11.33
20.91
21.54
12.68
-4.37
-26.66
-50.29
-71.23
-86.77
-95.34
-96.37
-90.11
-77.54
-60.12
-39.69
-18.44
0.96
14.54
19.39
15.04
3.72
-11.06
-26.26
-40.53
-54.65
-70.92
-93.17
-122.57
-156.12
-187.43
-209.97
-219.81
-216.48
-202.24
-180.60
-157.21
-136.07
-118.56
-104.10
-92.10
-82.44
-74.76
-67.76
-46.02
-4.36
48.64
96.07
125.74
135.52
130.70
119.16
108.04
101.87
99.90
100.12
101.28
103.30
105.32
105.90
102.78
94.74
82.78
67.87
51.83
36.63
24.24
14.99
7.95
2.04
-2.45
-4.36
-3.54
-0.79
2.58
6.82
12.72
20.89
31.14
42.78
54.15
62.09
63.69
58.42
50.98
48.53
57.20
78.99
111.48
148.39
181.84
205.74
208.55
187.99
153.06
118.00
91.43
73.24
58.60
43.78
28.60
15.38
7.53
5.45
7.08
6.49
0.14
-11.47
-24.95
-36.46
-43.89
-46.48
-45.54
-43.76
-43.88
-46.61
-50.33
-52.60
-51.71
-47.75
-41.68
-35.63
-32.14
-33.41
-39.92
-50.53
-63.27
-76.19
-87.84
-97.10
-103.31
-106.24
-106.03
-102.60
-95.82
-85.69
-72.40
-56.39
-38.26
-19.01
-0.11
16.54
29.39
37.74
41.99
43.40
43.54
43.48
43.63
43.72
43.47
43.06
43.22
44.74
48.07
52.97
58.71
64.46
69.63
73.83
76.91
79.00
80.98
84.86
93.66
110.32
135.96
168.42
202.15
229.73
244.42
242.39
223.40
189.91
145.53
93.94
39.04
-14.32
-59.97
-91.56
-104.83
-99.96
-82.07
-59.45
-40.13
-28.70
-24.77
-24.12
-21.44
-13.28
0.42
16.67
31.29
40.99
44.65
43.33
39.06
33.36
26.32
16.65
2.54
-17.11
-41.77
-69.06
-95.38
-117.12
-131.94
-139.54
-141.67
-141.40
-141.92
-145.34
-152.00
-160.59
-168.76
-174.11
-175.06
-171.37
-164.30
-156.58
-152.13
-155.40
-170.07
-197.21
-233.79
-272.41
-302.90
-315.29
-303.39
-267.02
-212.23
-148.90
-87.22
-34.20
7.87
40.86
68.54
94.11
118.64
140.97
158.93
170.77
176.07
175.64
170.84
162.54
150.80
135.37
116.45
95.28
74.02
55.11
40.55
31.62
28.97
32.93
43.49
59.79
79.46
98.47
111.92
115.68
108.08
90.80
68.28
46.06
28.81
19.06
17.07
21.54
30.60
42.22
54.28
64.36
69.89
68.78
60.16
44.91
25.42
4.98
-13.30
-27.30
-36.20
-40.37
-40.82
-38.70
-34.90
-30.03
-24.63
-19.42
-15.34
-13.43
-14.44
-18.47
-24.80
-31.91
-37.92
-41.14
-40.62
-36.43
-29.48
-20.98
-11.90
-2.54
7.31
17.91
28.98
39.48
47.85
52.75
53.75
51.70
48.48
46.24
46.57
49.95
55.61
61.81
66.44
67.58
64.02
55.53
42.88
27.47
11.01
-4.87
-18.96
-30.53
-39.34
-45.68
-50.18
-53.63
-56.66
-59.36
-61.24
-61.37
-58.77
-52.85
-43.70
-32.05
-19.03
-5.88
6.36
16.93
25.46
31.88
36.36
39.33
41.43
43.36
45.70
48.67
52.08
55.57
59.00
62.69
67.36
73.65
81.50
89.67
95.89
97.46
92.16
79.00
58.51
32.44
3.22
-26.56
-54.57
-78.92
-98.37
-112.33
-120.96
-124.97
-125.32
-122.91
-118.32
-111.73
-103.05
-92.15
-79.21
-64.95
-50.51
-37.08
-25.47
-15.82
-7.73
-0.73
5.25
9.79
12.22
12.28
10.45
7.94
6.14
6.05
8.11
12.34
18.61
26.56
35.22
42.59
45.95
42.78
32.08
15.28
-3.99
-21.18
-32.53
-36.17
-32.46
-23.25
-11.07
1.65
12.81
20.76
24.49
23.85
19.55
12.94
5.55
-1.40
-7.12
-11.22
-13.46
-13.73
-12.07
-8.82
-4.54
0.34
5.68
11.76
19.08
28.01
38.48
49.81
60.72
69.34
73.72
72.25
64.46
51.49
35.86
20.66
8.33
-0.24
-5.91
-10.40
-15.14
-20.36
-25.01
-27.55
-27.01
-23.65
-18.90
-14.52
-11.72
-10.63
-10.37
-9.66
-7.60
-4.15
-0.07
3.41
5.37
5.60
4.70
3.86
4.28
6.74
11.50
18.40
26.91
36.04
44.07
48.58
46.96
37.45
20.03
-3.14
-28.18
-50.69
-66.96
-74.97
-74.53
-66.88
-54.12
-38.68
-23.02
-9.37
0.68
6.47
8.34
7.45
5.33
3.26
2.07
2.02
2.94
4.65
7.09
10.43
15.04
21.12
28.57
36.76
44.66
50.90
54.12
53.16
47.44
37.18
23.49
8.27
-6.22
-17.87
-25.22
-27.69
-25.41
-18.87
-8.62
4.72
20.37
37.20
53.77
68.68
81.01
90.51
97.48
102.38
105.45
106.48
104.98
100.54
93.13
83.33
72.21
61.07
51.04
42.73
35.85
29.16
20.75
8.61
-8.51
-30.59
-56.30
-83.70
-111.01
-137.29
-162.33
-186.13
-208.22
-227.49
-242.66
-252.84
-258.20
-259.65
-258.23
-254.31
-247.44
-236.72
-221.61
-202.45
-180.40
-156.93
-133.14
-109.52
-86.08
-62.89
-40.46
-19.99
-2.98
9.14
15.65
16.84
13.87
8.58
2.77
-2.24
-5.96
-8.65
-10.91
-13.21
-15.53
-17.37
-18.01
-16.78
-13.40
-7.96
-0.92
7.04
15.14
22.63
29.03
34.19
38.36
42.09
45.98
50.46
55.68
61.43
67.32
72.86
77.50
80.59
81.52
79.96
75.96
70.05
62.87
54.68
45.11
33.20
17.92
-1.20
-23.68
-48.18
-73.01
-96.63
-117.99
-136.45
-151.72
-163.91
-173.66
-182.21
-190.86
-200.07
-208.71
-213.98
-212.37
-201.27
-180.32
-151.75
-119.51
-87.66
-58.90
-34.17
-13.23
4.35
18.41
28.43
34.22
36.64
37.47
38.76
41.65
45.72
49.32
50.54
48.38
43.15
36.09
28.45
20.80
12.88
4.10
-5.93
-17.23
-29.65
-43.02
-57.18
-71.42
-84.07
-92.53
-94.05
-86.76
-70.70
-47.74
-20.81
7.24
34.54
60.22
83.95
105.22
123.14
136.62
145.11
148.98
149.61
148.86
148.34
148.86
150.37
152.30
154.01
155.02
155.01
153.61
150.31
144.49
135.67
123.73
108.84
91.27
71.26
49.09
25.59
2.52
-17.37
-30.93
-35.63
-30.56
-16.85
2.68
24.58
45.59
63.26
75.95
82.69
83.14
77.86
68.53
57.79
48.62
43.45
43.37
47.99
55.76
64.75
73.25
80.11
84.78
87.10
87.25
85.58
82.67
79.10
75.25
71.11
66.22
59.91
51.69
41.72
31.19
22.24
17.52
19.35
28.80
45.04
65.49
86.56
104.72
117.46
123.74
123.73
118.30
108.58
95.70
80.90
65.62
51.40
39.61
31.02
25.66
22.88
21.72
21.21
20.68
19.78
18.35
16.33
13.70
10.47
6.64
2.20
-3.02
-9.16
-16.30
-24.26
-32.49
-40.17
-46.57
-51.12
-53.56
-53.85
-52.00
-47.98
-41.83
-33.68
-23.95
-13.34
-2.71
7.02
14.98
20.57
23.55
24.12
22.97
20.95
18.78
16.73
14.60
11.88
8.12
3.23
-2.60
-9.04
-15.91
-23.23
-31.08
-39.53
-48.56
-58.12
-68.24
-78.96
-90.01
-100.64
-109.55
-115.17
-116.16
-111.88
-102.66
-89.59
-74.24
-58.10
-42.29
-27.47
-14.03
-2.17
7.95
16.32
23.04
28.36
32.55
35.65
37.44
37.54
35.63
31.88
27.12
22.63
19.64
18.65
18.99
18.98
16.60
10.38
0.24
-12.42
-25.17
-35.44
-41.42
-42.56
-39.42
-33.15
-24.90
-15.42
-5.06
5.97
17.25
28.05
37.45
44.71
49.54
52.19
53.31
53.60
53.64
53.89
54.64
56.11
58.37
61.29
64.57
67.78
70.37
71.69
71.00
67.52
60.57
49.65
34.57
15.48
-7.05
-32.10
-58.49
-84.81
-109.78
-132.69
-153.42
-172.13
-188.58
-201.42
-208.13
-205.60
-191.36
-164.41
-125.49
-76.74
-21.28
36.89
92.92
141.63
178.91
203.21
216.37
222.70
226.66
230.19
231.64
226.68
211.01
183.29
146.80
109.01
78.99
64.00
66.38
82.48
103.73
119.78
122.11
106.63
74.15
28.70
-24.92
-82.62
-140.92
-195.64
-240.98
-270.28
-278.58
-265.24
-234.99
-196.49
-158.84
-128.23
-106.29
-90.55
-76.24
-58.53
-34.22
-2.86
32.77
66.77
91.19
98.45
84.41
50.71
5.23
-40.13
-73.67
-88.11
-82.83
-63.29
-37.94
-14.45
2.77
12.85
17.16
17.38
14.25
7.62
-2.87
-16.60
-31.53
-44.70
-53.10
-54.80
-49.75
-39.88
-28.23
-17.72
-9.95
-4.79
-0.73
4.43
12.44
23.96
38.29
53.55
66.97
75.18
74.78
62.91
38.83
4.80
-33.79
-69.81
-96.21
-108.19
-104.35
-86.75
-60.41
-31.15
-4.36
15.50
25.11
22.80
8.91
-13.89
-40.94
-67.50
-88.21
-98.58
-96.60
-83.89
-65.36
-47.49
-36.07
-34.33
-43.83
-62.40
-85.88
-110.90
-136.53
-163.67
-192.86
-222.21
-247.07
-263.49
-267.15
-255.42
-229.17
-192.74
-151.95
-111.68
-74.48
-28.19
27.66
84.12
129.94
159.26
172.85
175.10
171.54
167.24
165.48
164.92
163.33
159.50
151.92
139.69
122.93
103.00
82.46
64.27
49.34
38.77
33.72
34.48
40.07
48.94
58.17
65.12
68.28
66.66
61.24
54.25
47.79
42.94
39.53
36.70
33.68
30.07
25.40
19.82
14.05
8.90
4.97
2.45
1.08
0.42
-0.03
-0.86
-2.38
-4.47
-6.69
-8.34
-8.66
-7.12
-3.61
1.33
6.52
10.43
11.85
10.47
7.06
3.19
0.46
-0.23
0.77
1.93
1.07
-3.54
-12.25
-23.34
-33.27
-37.73
-33.28
-18.79
3.97
30.84
56.86
77.81
91.40
97.44
97.34
93.24
87.32
81.41
76.79
74.17
73.56
74.38
75.55
75.79
74.00
69.53
62.37
53.10
42.81
32.75
23.91
16.72
10.82
5.22
-1.26
-9.57
-20.06
-32.39
-45.65
-58.63
-70.01
-78.79
-84.41
-87.00
-87.46
-87.32
-88.39
-92.25
-99.65
-110.11
-121.95
-132.71
-139.84
-141.36
-136.39
-125.51
-110.69
-95.18
-82.82
-77.19
-80.57
-92.92
-111.68
-132.15
-149.04
-158.14
-157.66
-148.77
-134.75
-119.67
-106.68
-97.07
-90.07
-83.72
-76.00
-65.92
-53.77
-40.69
-27.89
-15.99
-5.00
5.36
15.15
24.17
32.44
40.56
49.85
61.80
77.05
94.56
111.62
124.74
131.15
129.92
122.44
111.88
102.09
96.50
97.27
104.96
118.63
136.14
154.54
170.74
182.20
187.55
187.09
182.68
177.19
173.60
174.27
180.29
191.21
204.92
217.74
224.96
222.02
205.95
176.70
137.68
94.85
54.69
21.91
-1.99
-18.54
-31.03
-42.72
-55.85
-71.16
-88.25
-106.29
-124.34
-141.19
-155.22
-164.56
-167.58
-164.07
-154.63
-140.44
-123.07
-104.17
-85.23
-67.35
-51.18
-36.94
-25.49
-16.62
-9.24
-2.37
3.74
7.72
7.92
3.34
-5.63
-19.19
-36.16
-54.87
-74.43
-95.66
-120.14
-148.56
-179.72
-210.38
-238.33
-260.04
-271.47
-269.72
-254.88
-229.83
-198.76
-165.98
-121.46
-66.52
-11.43
32.70
62.35
80.40
91.69
100.50
107.61
111.57
107.99
94.78
71.81
43.09
14.28
-9.05
-22.89
-26.06
-20.26
-11.07
-3.61
-0.71
-2.50
-7.67
-13.94
-18.27
-17.43
-8.42
9.54
35.88
68.45
103.44
135.52
159.23
170.79
169.11
155.89
134.30
108.70
83.76
63.68
51.18
47.06
50.15
57.54
65.47
70.16
69.37
62.98
52.75
41.06
29.85
19.83
10.53
1.08
-9.01
-19.26
-28.16
-33.81
-34.62
-29.97
-20.44
-7.62
6.21
18.61
27.58
32.16
32.38
29.12
23.59
17.01
10.48
5.19
2.54
4.28
12.21
27.17
48.01
71.30
92.17
105.98
110.03
104.42
92.00
77.37
64.95
57.18
53.88
52.57
49.82
42.72
29.53
10.33
-12.96
-37.36
-60.02
-78.56
-91.34
-97.11
-93.34
-79.24
-58.60
-38.34
-24.63
-20.78
-26.79
-40.39
-57.81
-74.66
-87.50
-94.54
-95.40
-90.78
-83.54
-74.83
-65.99
-58.40
-52.77
-49.08
-46.54
-43.27
-36.85
-25.26
-7.53
15.37
40.63
63.29
79.06
86.72
88.57
88.58
89.81
93.09
98.18
101.73
101.61
97.79
92.07
87.17
85.35
87.69
94.11
103.70
114.16
123.83
130.86
133.08
128.35
115.32
94.35
67.84
39.47
12.63
-10.29
-28.73
-43.50
-55.70
-65.81
-73.51
-78.24
-80.16
-80.49
-80.84
-82.50
-85.84
-90.36
-95.19
-99.63
-103.38
-106.31
-108.12
-108.01
-105.10
-99.02
-90.23
-79.84
-69.03
-58.42
-48.02
-37.74
-27.86
-19.13
-12.33
-7.28
-2.54
4.04
14.06
27.40
42.01
54.83
63.42
67.10
66.89
64.54
61.30
57.34
52.21
45.76
38.76
32.78
29.24
28.61
30.11
32.34
34.28
35.91
38.22
42.50
49.56
59.44
71.46
84.38
96.38
105.11
107.95
102.91
89.73
70.64
50.01
32.89
22.94
21.05
25.24
31.98
38.04
41.78
43.17
43.05
42.03
40.14
37.08
32.93
28.44
24.75
22.75
22.55
23.34
23.77
22.69
19.65
14.84
8.79
1.85
-6.10
-15.72
-28.01
-43.87
-63.60
-86.50
-110.72
-133.62
-152.57
-165.80
-172.99
-175.15
-173.87
-170.31
-164.71
-156.62
-145.58
-131.90
-116.76
-101.68
-87.67
-74.82
-62.54
-50.23
-37.86
-26.12
-15.85
-7.45
-0.38
6.53
14.42
23.79
34.17
44.27
52.35
56.62
55.66
48.89
36.97
21.86
6.34
-6.94
-16.54
-22.78
-27.38
-32.46
-39.37
-48.15
-57.84
-67.28
-75.82
-83.63
-91.11
-98.32
-104.72
-109.47
-112.05
-112.59
-111.98
-111.31
-111.28
-111.84
-112.20
-111.30
-108.29
-102.81
-95.04
-85.53
-75.02
-64.34
-54.35
-45.65
-38.24
-31.27
-23.32
-13.13
-0.61
12.70
23.99
30.52
31.07
26.74
20.55
16.09
15.86
20.32
28.02
36.50
43.41
47.30
47.66
44.84
39.57
32.89
25.89
19.71
15.36
13.75
15.66
21.56
31.32
43.86
57.12
68.66
76.65
80.74
82.20
83.27
85.83
90.38
95.83
100.22
101.80
99.92
94.97
87.77
78.88
68.29
55.67
41.00
24.91
8.61
-6.57
-19.63
-30.25
-38.69
-45.56
-51.41
-56.52
-60.87
-64.18
-66.02
-65.99
-63.92
-59.95
-54.74
-49.17
-43.96
-39.25
-34.34
-28.25
-20.48
-11.77
-4.18
-0.33
-2.01
-9.01
-18.93
-28.02
-32.73
-31.20
-23.91
-13.26
-2.51
5.30
8.23
5.59
-2.16
-13.61
-26.69
-39.00
-48.23
-52.82
-52.23
-46.82
-37.33
-24.45
-8.75
8.97
27.37
44.64
59.13
70.06
77.94
84.11
89.69
94.77
98.23
98.49
94.65
87.07
77.22
66.76
56.77
47.40
38.37
29.54
21.24
13.88
7.56
1.75
-4.43
-11.64
-19.67
-27.40
-33.25
-36.02
-35.35
-31.78
-26.39
-20.23
-14.21
-9.10
-5.61
-4.41
-5.76
-9.17
-13.33
-16.57
-17.62
-16.29
-13.52
-10.79
-9.22
-8.96
-9.11
-8.38
-5.97
-2.11
1.90
4.38
3.98
0.29
-6.06
-13.84
-21.68
-28.49
-33.61
-36.65
-37.43
-35.83
-31.85
-25.50
-17.12
-7.59
1.56
8.44
11.62
10.97
8.13
6.03
7.52
13.89
24.00
34.69
42.29
44.35
40.58
32.67
23.16
14.16
6.63
0.61
-4.14
-7.58
-9.40
-9.38
-7.85
-5.74
-4.33
-4.63
-6.90
-10.60
-14.68
-18.06
-20.01
-20.23
-18.67
-15.43
-10.71
-4.81
1.82
8.72
15.62
22.51
29.42
36.12
41.82
45.32
45.50
41.94
35.29
27.17
19.50
13.73
10.46
9.33
9.47
9.95
10.07
9.39
7.71
4.97
1.29
-2.94
-7.14
-10.70
-13.11
-14.27
-14.19
-12.91
-10.35
-6.44
-1.28
4.62
10.63
16.23
21.32
26.15
30.93
35.38
38.63
39.52
37.23
31.79
24.15
15.65
7.46
0.11
-6.46
-12.53
-18.21
-23.32
-27.48
-30.48
-32.44
-33.77
-34.90
-36.03
-37.11
-38.00
-38.78
-39.67
-40.82
-41.90
-42.10
-40.30
-35.75
-28.46
-19.43
-10.10
-1.75
5.07
10.43
14.49
16.88
16.61
12.63
4.61
-6.48
-18.47
-28.79
-35.38
-37.44
-35.48
-30.93
-25.48
-20.55
-17.00
-15.11
-14.62
-14.99
-15.51
-15.65
-15.21
-14.27
-12.79
-10.44
-6.52
-0.40
7.97
17.84
27.90
36.87
44.06
49.50
53.60
56.54
57.92
56.91
52.77
45.37
35.41
24.04
12.44
1.34
-8.97
-18.29
-26.32
-32.49
-36.17
-37.00
-35.10
-31.17
-26.30
-21.63
-18.02
-15.89
-15.13
-15.18
-15.16
-14.14
-11.35
-6.51
0.09
7.53
14.64
20.39
24.24
26.23
26.71
25.94
23.58
18.50
8.93
-7.13
-30.95
-62.31
-98.90
-136.54
-170.14
-195.29
-209.53
-213.12
-208.54
-199.30
-188.44
-177.68
-167.37
-157.32
-147.54
-138.63
-131.43
-126.36
-122.97
-119.83
-114.94
-106.23
-92.03
-71.56
-45.19
-14.45
18.22
50.00
78.40
101.81
119.68
132.26
140.12
143.84
144.06
141.68
138.13
135.04
133.69
134.36
136.30
138.27
139.38
139.72
140.24
142.04
145.46
149.54
152.25
151.30
144.98
132.67
114.80
92.72
68.46
44.71
24.64
11.45
7.59
13.80
28.73
49.22
71.21
90.84
105.26
112.90
113.45
107.45
96.13
81.20
64.70
48.77
35.38
25.96
21.15
20.60
22.96
26.25
28.47
28.24
25.35
20.76
16.14
13.20
13.24
16.96
24.46
34.90
46.32
55.50
58.75
53.25
38.44
16.68
-7.58
-29.58
-46.14
-56.48
-61.67
-63.30
-62.36
-59.17
-54.14
-48.55
-44.73
-45.11
-50.89
-61.19
-73.16
-82.91
-86.92
-83.05
-71.05
-52.26
-29.07
-4.27
19.49
40.17
56.65
68.91
78.05
85.80
93.64
101.72
108.34
110.46
105.24
91.99
73.15
53.55
38.23
29.76
26.91
25.39
20.30
8.90
-7.94
-26.44
-41.99
-51.54
-54.76
-53.70
-51.46
-50.74
-52.97
-58.04
-64.42
-69.60
-70.50
-64.11
-48.27
-22.44
11.66
49.74
85.31
110.94
120.34
110.52
82.99
43.41
-0.35
-40.80
-72.95
-94.84
-106.70
-109.47
-103.85
-90.52
-71.17
-49.25
-29.57
-16.94
-14.14
-20.86
-33.76
-47.92
-58.72
-63.49
-62.03
-56.37
-49.55
-44.29
-42.19
-43.18
-45.60
-46.60
-42.71
-30.59
-8.09
24.75
65.06
107.18
143.79
167.67
173.62
159.84
128.35
84.48
35.49
-10.96
-48.36
-72.53
-82.10
-78.64
-65.97
-49.13
-33.03
-21.29
-15.46
-14.94
-17.21
-18.68
-15.74
-5.72
12.37
37.60
67.36
98.00
125.41
145.57
155.25
152.88
139.42
118.60
96.08
77.51
66.36
62.63
63.38
64.72
64.11
61.50
58.72
57.64
58.39
59.00
56.67
49.66
38.57
26.20
16.13
10.87
10.80
14.30
18.59
20.98
19.84
14.96
7.52
-0.60
-7.63
-12.67
-16.13
-19.41
-24.11
-30.81
-38.51
-44.75
-46.84
-43.43
-35.83
-28.04
-25.53
-33.40
-54.49
-88.55
-132.36
-180.73
-227.69
-267.39
-294.73
-305.80
-298.69
-273.90
-234.88
-187.40
-138.25
-93.43
-56.53
-28.01
-5.59
14.37
34.95
57.16
79.34
98.08
110.01
113.36
108.88
99.32
87.81
76.58
66.27
56.70
47.93
40.79
36.37
34.79
34.44
32.38
25.90
14.12
-1.24
-16.77
-29.29
-37.51
-42.53
-46.90
-52.93
-61.35
-71.13
-80.31
-87.21
-91.19
-92.55
-92.01
-90.25
-87.80
-84.80
-81.45
-77.91
-74.05
-69.66
-64.18
-56.81
-46.81
-33.62
-17.50
-0.02
15.92
27.29
32.44
32.68
31.96
34.78
43.15
54.61
62.91
61.15
45.89
19.38
-11.30
-37.58
-53.16
-56.04
-48.14
-33.34
-15.45
2.76
19.60
33.88
44.65
51.01
52.35
48.61
41.08
32.90
28.86
33.86
50.53
77.21
107.61
133.23
146.90
146.19
134.21
117.68
103.37
95.11
92.94
94.48
97.16
99.83
102.69
106.17
109.68
111.51
109.48
102.03
88.80
70.55
48.90
25.58
2.70
-17.54
-33.20
-43.20
-47.94
-49.62
-51.75
-57.93
-70.53
-89.38
-111.51
-131.85
-144.83
-146.42
-135.63
-114.93
-89.22
-63.89
-42.63
-26.47
-14.30
-4.63
2.23
3.15
-6.91
-32.31
-73.58
-125.63
-178.55
-220.68
-243.09
-242.80
-223.57
-193.47
-161.31
-133.47
-112.53
-98.03
-87.95
-80.12
-72.81
-64.82
-55.47
-44.57
-32.39
-19.25
-5.04
11.08
30.12
52.65
78.15
105.23
132.30
158.35
182.99
205.75
225.29
239.27
245.42
242.99
233.65
221.03
209.06
200.35
194.86
190.20
182.72
168.81
146.15
114.38
75.18
32.07
-10.21
-46.49
-72.27
-84.80
-83.84
-71.77
-52.93
-32.55
-15.60
-5.55
-3.74
-9.21
-19.04
-29.54
-37.42
-40.86
-39.93
-36.26
-32.12
-29.53
-29.47
-31.81
-35.71
-40.42
-45.87
-52.64
-61.52
-73.31
-88.38
-106.74
-128.07
-151.74
-176.43
-199.69
-217.83
-227.01
-225.12
-213.08
-194.79
-175.35
-158.65
-145.74
-134.93
-123.02
-107.74
-89.13
-69.28
-50.62
-33.72
-17.17
1.23
22.17
44.88
66.78
84.61
95.92
100.21
100.04
99.16
100.25
102.82
105.55
106.18
102.65
93.52
78.96
62.65
49.33
42.77
42.87
49.22
59.91
72.10
81.93
86.19
85.52
82.36
79.23
75.58
72.49
70.82
71.26
73.35
63.69
35.36
-8.23
-41.58
-57.66
-55.92
-44.44
-29.32
-16.97
-12.49
-16.44
-26.71
-40.11
-55.84
-70.92
-82.29
-87.04
-84.17
-74.42
-58.79
-40.16
-22.94
-12.99
-11.47
-15.50
-19.17
-17.10
-5.94
15.96
47.65
85.90
124.68
158.59
182.50
192.65
187.32
168.82
144.31
123.47
114.66
120.86
140.03
165.25
187.72
199.69
197.25
181.53
157.53
131.76
109.75
95.22
88.24
85.02
78.60
62.13
32.48
-7.39
-49.12
-82.05
-97.19
-91.65
-69.23
-43.55
-30.30
-39.32
-67.14
-100.75
-127.48
-140.90
-141.98
-136.41
-128.31
-118.41
-104.83
-84.94
-57.70
-25.48
8.57
39.26
64.31
83.88
98.98
110.23
117.47
119.91
117.13
113.99
110.75
108.85
110.01
115.21
124.00
134.69
144.67
148.67
143.62
127.93
102.88
70.93
34.76
-2.85
-38.98
-71.15
-98.10
-119.94
-139.04
-157.76
-177.48
-197.46
-214.68
-225.02
-225.56
-215.91
-198.54
-178.60
-161.70
-152.51
-153.33
-163.10
-177.32
-189.26
-192.29
-181.83
-157.57
-123.26
-85.65
-52.45
-29.97
-21.58
-27.02
-42.51
-61.88
-79.00
-90.17
-95.99
-101.11
-111.54
-130.99
-158.01
-186.12
-206.64
-212.85
-202.91
-179.62
-147.65
-110.31
-68.20
-20.44
32.28
85.64
132.09
163.87
176.69
171.89
155.84
136.90
121.82
113.30
109.55
106.24
99.17
86.44
69.26
51.06
35.87
26.65
24.41
28.30
36.26
45.89
55.15
62.67
67.86
70.90
72.60
74.19
76.96
81.80
88.79
97.14
105.36
111.75
114.61
112.50
104.23
88.96
66.44
37.29
3.13
-33.76
-70.91
-106.40
-139.11
-168.68
-194.80
-216.69
-232.98
-242.11
-243.24
-236.86
-225.04
-210.83
-197.41
-187.15
-181.05
-178.66
-178.27
-177.40
-173.60
-165.28
-152.19
-135.48
-116.82
-96.99
-75.02
-48.58
-15.68
23.13
63.58
98.88
122.57
131.51
127.56
116.46
105.21
99.00
99.84
106.93
118.37
132.63
149.12
167.70
187.75
207.71
225.35
238.66
246.88
250.91
252.80
254.85
258.33
262.66
265.66
264.48
256.93
242.41
222.00
197.63
171.13
143.70
116.08
89.15
64.37
43.54
28.19
18.78
14.48
13.57
14.23
15.20
16.04
16.97
18.31
20.25
22.65
25.32
28.15
31.18
34.52
38.20
42.26
46.88
52.42
58.96
65.81
71.30
73.05
68.95
58.15
41.52
21.21
-0.20
-20.71
-39.10
-54.76
-67.16
-75.76
-80.26
-81.06
-79.38
-76.66
-73.84
-70.73
-66.10
-58.55
-47.29
-32.59
-15.58
2.25
19.57
35.42
49.26
60.94
70.75
79.40
87.61
95.60
102.59
106.91
106.54
100.04
87.11
68.54
45.59
19.28
-9.68
-40.30
-70.52
-96.91
-115.45
-123.07
-119.27
-106.47
-89.30
-72.67
-60.04
-52.52
-49.09
-47.74
-46.67
-45.01
-42.66
-40.00
-37.39
-35.09
-33.42
-33.06
-34.99
-40.35
-50.01
-64.02
-81.46
-100.40
-118.43
-133.46
-144.55
-152.35
-158.81
-166.25
-175.97
-187.39
-197.92
-204.10
-203.11
-194.03
-178.22
-158.35
-136.97
-115.40
-93.61
-70.94
-47.24
-23.48
-1.52
16.88
31.02
41.68
50.75
60.22
71.50
84.94
100.00
115.58
130.20
142.21
149.92
152.07
148.18
138.84
125.54
110.00
93.56
76.71
59.32
41.09
22.23
3.74
-12.74
-25.49
-33.20
-35.32
-32.04
-24.10
-12.58
1.19
15.66
29.26
40.70
49.29
55.22
59.27
62.30
64.59
65.50
63.98
59.10
50.68
39.21
25.35
9.60
-7.61
-25.45
-42.33
-56.23
-65.67
-70.70
-73.15
-75.73
-80.64
-88.28
-97.21
-105.16
-110.51
-113.21
-114.63
-116.46
-119.41
-122.68
-124.25
-121.95
-114.49
-102.05
-86.18
-68.92
-51.90
-35.79
-20.22
-4.43
12.08
29.12
45.86
61.07
73.52
82.11
85.93
84.58
78.38
68.59
57.22
46.38
37.47
30.74
25.44
20.53
15.47
10.48
6.17
2.84
-0.09
-3.96
-10.07
-18.88
-29.72
-41.08
-51.42
-59.88
-66.35
-70.96
-73.46
-72.81
-67.36
-55.66
-37.17
-12.78
15.31
44.01
69.88
89.71
101.15
103.30
97.04
84.93
70.41
56.62
45.35
36.75
29.72
22.95
15.78
8.43
1.68
-3.91
-8.44
-12.61
-17.17
-22.36
-27.70
-32.24
-35.11
-35.94
-35.01
-33.09
-31.04
-29.41
-28.24
-27.26
-26.02
-24.06
-20.94
-16.32
-10.05
-2.29
6.40
15.17
23.30
30.45
36.71
42.25
46.89
49.90
50.45
48.20
43.84
38.96
35.36
34.14
35.13
37.18
38.91
39.56
39.17
38.32
37.47
36.52
34.87
31.91
27.62
22.80
18.86
17.19
18.62
22.97
29.18
35.64
40.65
42.51
39.76
31.34
17.07
-1.85
-22.77
-42.24
-57.08
-65.62
-68.20
-66.72
-63.49
-60.16
-57.24
-54.54
-51.97
-49.98
-49.50
-51.19
-54.81
-59.12
-62.42
-63.31
-61.40
-57.30
-52.26
-47.43
-43.25
-39.27
-34.43
-27.61
-18.15
-6.23
7.16
20.40
31.53
38.64
40.35
36.35
27.81
17.26
7.81
2.03
0.87
3.45
7.83
12.25
16.09
19.94
24.84
31.17
37.94
43.18
44.93
42.41
36.49
29.19
22.74
18.48
16.37
15.34
14.06
11.83
9.14
7.35
8.06
12.17
19.43
28.50
37.38
43.84
45.82
41.81
31.09
14.15
-7.26
-30.49
-52.67
-71.48
-85.60
-94.57
-98.40
-97.18
-91.17
-81.22
-69.11
-57.34
-48.34
-43.53
-42.82
-44.76
-47.46
-49.40
-49.80
-48.50
-45.58
-40.96
-34.51
-26.33
-17.07
-7.86
0.06
5.95
9.82
12.34
14.30
16.09
17.52
17.93
16.59
13.02
7.11
-0.85
-10.22
-20.04
-28.95
-35.32
-37.53
-34.46
-25.93
-12.90
2.72
18.58
32.56
43.24
50.11
53.34
53.49
51.10
46.56
40.21
32.65
24.94
18.48
14.69
14.46
17.75
23.50
29.80
34.39
35.36
31.64
23.48
12.27
0.03
-11.34
-20.77
-28.20
-34.31
-39.90
-45.28
-50.13
-53.74
-55.55
-55.51
-54.13
-52.02
-49.53
-46.56
-42.70
-37.66
-31.61
-25.24
-19.47
-14.97
-11.85
-9.47
-6.80
-2.77
3.39
11.85
22.21
33.52
44.37
53.05
58.05
58.50
54.71
48.02
40.19
32.52
25.16
17.27
7.88
-2.99
-13.85
-22.07
-25.18
-22.22
-14.26
-3.92
5.95
13.63
18.98
23.01
26.86
30.82
34.07
35.34
33.64
29.14
23.32
18.36
16.36
18.51
24.75
33.90
44.08
53.07
58.81
59.83
55.67
47.05
35.58
23.22
11.39
0.59
-9.64
-20.18
-31.63
-43.83
-55.84
-66.41
-74.37
-79.09
-80.51
-78.94
-74.88
-68.87
-61.50
-53.33
-44.79
-36.06
-26.97
-17.00
-5.43
8.40
24.70
43.02
62.21
80.39
95.13
103.99
105.07
97.70
82.96
63.56
43.07
24.66
10.02
-1.20
-10.78
-20.73
-32.11
-44.37
-55.73
-64.17
-68.36
-68.13
-64.18
-57.48
-48.76
-38.41
-26.70
-14.24
-2.08
8.46
16.23
20.70
22.30
22.29
22.30
23.77
27.42
33.18
40.49
48.53
56.42
63.18
67.69
68.77
65.52
57.66
45.84
31.39
15.98
1.07
-12.38
-23.92
-33.42
-40.86
-46.24
-49.61
-51.14
-51.07
-49.53
-46.55
-42.11
-36.38
-29.69
-22.63
-15.73
-9.39
-3.67
1.62
6.71
11.78
17.00
22.52
28.60
35.45
42.84
50.00
55.58
58.22
57.18
52.77
46.27
39.15
32.32
25.60
17.99
8.41
-3.37
-16.32
-28.41
-37.47
-42.15
-42.35
-39.01
-33.50
-26.85
-19.48
-11.37
-2.68
5.87
12.94
17.21
18.09
16.24
13.39
11.51
12.03
15.30
20.85
27.72
34.67
40.14
42.18
39.02
29.80
15.41
-1.45
-17.26
-29.13
-36.12
-39.34
-41.03
-43.00
-45.73
-48.27
-49.16
-47.56
-43.75
-38.84
-34.05
-30.09
-26.89
-23.96
-20.68
-16.70
-12.04
-6.98
-1.84
3.17
8.01
13.03
18.79
26.09
35.46
46.75
58.80
69.66
77.22
80.07
78.04
72.17
64.00
54.76
44.97
34.60
23.60
12.31
1.51
-8.02
-16.01
-22.68
-28.48
-33.48
-37.10
-38.37
-36.44
-31.17
-23.32
-14.13
-4.85
3.88
12.07
20.13
28.43
37.00
45.70
54.40
62.99
71.03
77.36
80.12
77.37
68.14
53.18
34.95
16.72
1.20
-10.19
-17.29
-20.61
-20.61
-17.82
-13.19
-8.81
-7.47
-11.74
-22.47
-38.02
-54.72
-68.08
-74.58
-72.63
-62.81
-47.17
-28.33
-8.72
9.80
25.93
38.79
47.68
52.14
51.92
47.25
39.01
28.72
18.36
9.87
4.70
3.24
4.79
7.82
10.56
11.68
10.72
8.17
5.00
2.17
0.05
-1.62
-3.70
-7.19
-12.91
-21.23
-31.87
-43.91
-55.65
-64.75
-68.70
-65.39
-53.90
-34.93
-11.10
13.62
34.70
48.41
52.90
48.81
38.93
27.02
16.35
8.51
3.15
-1.37
-6.64
-13.22
-20.29
-26.30
-29.92
-30.81
-29.67
-27.62
-25.54
-23.63
-21.61
-19.20
-16.61
-14.68
-14.44
-16.50
-20.43
-24.70
-27.14
-25.71
-19.19
-7.60
7.87
25.28
42.36
56.96
67.37
72.50
71.99
66.30
56.57
44.32
31.12
18.19
6.28
-4.42
-13.98
-22.56
-30.21
-36.81
-42.15
-46.12
-48.82
-50.62
-52.15
-53.90
-56.19
-59.09
-62.43
-65.90
-68.92
-70.50
-69.28
-63.90
-53.49
-38.26
-19.61
0.20
18.57
33.29
42.89
46.84
45.43
39.74
31.32
21.89
12.90
4.98
-2.01
-8.75
-15.77
-22.98
-29.57
-34.43
-36.81
-36.72
-34.98
-32.70
-30.92
-30.21
-30.83
-32.83
-36.16
-40.58
-45.36
-49.16
-50.10
-46.37
-36.82
-21.50
-1.75
20.26
42.09
61.58
76.99
87.05
90.84
88.07
79.40
66.45
51.57
37.04
24.29
13.53
4.08
-4.91
-13.63
-21.49
-27.48
-30.96
-32.12
-31.98
-31.85
-32.64
-34.58
-37.15
-39.44
-40.63
-40.19
-37.94
-33.75
-27.39
-18.30
-5.83
10.35
29.83
51.33
72.88
92.35
107.77
117.53
120.32
115.19
101.91
81.51
56.54
30.68
7.66
-10.13
-22.34
-30.48
-36.80
-43.01
-49.56
-55.84
-60.96
-64.63
-67.30
-69.76
-72.48
-75.13
-76.65
-75.71
-71.44
-63.74
-53.33
-41.34
-28.71
-15.82
-2.47
11.69
26.63
41.58
55.09
65.54
71.52
72.30
67.92
59.15
47.35
34.28
21.70
10.96
2.51
-4.30
-10.82
-18.31
-27.10
-36.17
-43.66
-47.83
-48.07
-45.16
-40.80
-36.59
-33.15
-29.85
-25.22
-17.73
-6.66
7.58
23.64
39.80
54.72
67.89
79.57
90.44
101.00
111.27
120.66
128.06
131.97
130.84
123.51
109.66
90.31
67.85
45.50
26.39
12.51
4.15
0.09
-1.65
-3.03
-5.43
-9.46
-15.22
-22.37
-30.26
-37.82
-43.73
-46.73
-45.90
-41.10
-32.85
-22.36
-11.32
-1.50
5.63
9.40
10.24
9.54
9.10
10.26
13.18
16.80
19.22
18.66
14.14
5.79
-5.42
-18.20
-31.36
-44.01
-55.53
-65.50
-73.79
-80.51
-86.00
-90.49
-93.91
-95.69
-95.03
-91.13
-83.50
-72.11
-57.26
-39.64
-20.32
-0.82
16.94
30.98
39.83
43.01
41.17
35.98
29.45
23.54
19.78
19.32
22.80
29.99
39.15
46.99
49.47
43.51
28.57
7.21
-16.14
-37.28
-54.27
-67.93
-80.44
-93.30
-105.78
-115.08
-117.96
-112.83
-100.72
-84.73
-68.41
-54.13
-42.45
-32.61
-23.50
-14.40
-5.28
3.54
11.77
19.50
27.07
34.94
43.29
52.03
61.04
70.49
80.93
93.11
107.17
121.97
134.84
142.08
140.09
126.65
101.77
67.72
28.41
-11.77
-48.72
-79.21
-101.02
-112.98
-115.02
-108.39
-95.56
-79.77
-64.35
-51.90
-44.08
-41.55
-44.23
-51.41
-61.51
-71.76
-78.22
-76.97
-65.76
-45.49
-20.46
3.04
18.96
23.63
16.61
0.12
-22.41
-47.70
-73.22
-97.18
-118.05
-134.25
-144.12
-146.20
-139.50
-123.88
-100.24
-70.56
-37.72
-4.77
25.85
52.92
76.45
97.09
115.36
131.26
144.23
153.39
157.91
157.09
150.38
137.60
119.11
96.03
70.31
44.36
20.62
0.92
-13.91
-24.32
-31.80
-38.45
-46.02
-55.22
-65.17
-73.62
-77.85
-75.61
-66.09
-49.98
-28.93
-4.87
20.56
45.90
69.52
89.61
104.38
112.80
115.31
113.92
111.60
111.30
114.85
122.36
132.49
142.90
150.94
154.00
149.81
137.02
115.71
87.81
56.68
25.96
-1.93
-26.71
-50.04
-74.00
-99.21
-123.69
-143.21
-153.14
-150.61
-135.92
-112.43
-84.88
-57.48
-32.56
-10.35
10.11
29.86
49.31
68.01
85.21
100.40
113.58
125.14
135.47
144.60
152.24
157.82
160.77
160.69
157.40
150.91
141.42
129.31
115.10
99.42
82.99
66.65
51.30
37.73
26.20
16.08
5.87
-6.34
-21.81
-40.21
-59.35
-75.75
-86.02
-88.28
-83.00
-72.71
-60.96
-50.83
-43.96
-40.23
-38.36
-36.76
-34.24
-30.26
-24.85
-18.47
-11.95
-6.57
-3.82
-5.04
-10.93
-21.35
-35.52
-52.40
-71.07
-90.55
-109.43
-125.44
-135.78
-137.98
-131.03
-115.98
-95.72
-73.88
-53.68
-37.00
-24.35
-15.26
-8.75
-3.58
1.55
7.76
15.63
24.83
34.01
41.38
45.31
45.20
41.64
36.20
30.77
26.78
24.94
25.18
27.08
30.15
33.83
37.20
38.72
36.31
28.02
13.11
-7.24
-29.64
-49.52
-62.61
-66.52
-61.53
-50.08
-35.53
-20.80
-7.66
3.23
11.74
17.79
21.37
22.88
23.52
25.13
29.49
37.44
48.36
60.02
69.08
71.76
64.81
46.56
17.89
-17.37
-53.03
-82.16
-99.27
-102.26
-92.92
-76.03
-57.29
-41.33
-30.57
-25.27
-24.49
-27.13
-32.40
-39.76
-48.55
-57.69
-65.90
-72.06
-75.74
-77.30
-77.73
-78.13
-79.13
-80.70
-82.24
-82.96
-82.20
-79.60
-75.01
-68.30
-59.21
-47.42
-32.74
-15.34
4.31
25.43
47.10
68.25
87.68
104.14
116.45
123.83
126.14
124.01
118.62
111.41
103.73
96.60
90.65
86.16
83.11
81.20
79.93
78.84
77.67
76.58
75.98
76.29
77.42
78.57
78.27
74.89
67.48
56.18
42.24
27.36
13.02
-0.16
-12.54
-25.01
-38.54
-53.56
-69.90
-86.78
-103.27
-118.47
-131.77
-142.93
-152.04
-159.37
-165.34
-170.33
-174.61
-178.37
-181.78
-184.92
-187.83
-190.37
-192.43
-194.24
-196.60
-200.77
-207.86
-217.78
-228.60
-236.57
-237.22
-226.96
-204.47
-170.92
-129.20
-82.57
-33.82
14.67
60.34
99.95
129.98
147.86
153.21
148.28
137.03
123.47
110.08
97.26
84.01
69.13
52.25
33.98
15.33
-3.08
-21.41
-40.46
-60.96
-82.94
-105.33
-125.91
-141.91
-150.67
-150.43
-140.70
-122.34
-97.21
-67.62
-35.96
-4.46
24.84
50.04
69.61
82.64
89.25
90.66
88.74
85.42
82.07
79.23
76.92
75.00
73.57
72.96
73.42
74.71
76.31
77.15
75.91
71.54
63.69
52.79
39.80
26.01
12.92
2.59
-2.92
-2.05
5.72
19.56
37.39
56.35
73.69
87.59
98.15
106.05
111.59
114.43
114.06
110.60
105.10
99.33
95.24
96.07
103.24
115.52
129.87
143.33
154.27
162.24
167.35
169.78
173.56
181.19
192.15
203.73
213.77
221.96
229.16
236.20
243.47
257.34
281.71
315.46
353.05
388.38
416.85
434.91
439.61
429.41
413.42
400.34
394.14
393.66
396.79
402.85
411.55
421.79
380.71
265.50
94.21
-88.03
-245.51
-366.37
-454.03
-516.13
-558.96
-585.84
-590.18
-569.75
-528.73
-477.36
-425.95
-380.85
-344.63
-317.44
-297.66
-277.21
-250.90
-219.52
-190.64
-173.06
-168.95
-173.27
-177.03
-172.15
-152.68
-119.16
-78.84
-41.14
-12.38
6.63
18.96
24.46
24.27
20.56
14.62
6.62
-3.45
-14.22
-22.62
-25.70
-22.18
-12.49
1.41
16.63
29.75
37.79
39.54
36.01
29.46
21.88
14.59
5.41
-6.46
-19.86
-32.13
-40.51
-43.85
-43.64
-43.44
-46.59
-54.98
-67.38
-80.35
-90.35
-95.00
-93.67
-86.99
-77.54
-65.61
-51.85
-36.96
-21.66
-6.88
6.57
18.19
27.82
35.57
42.00
47.56
51.31
53.47
54.31
53.60
50.56
44.37
34.79
22.83
10.23
-0.80
-8.15
-10.89
-9.18
-4.12
2.79
10.04
16.49
21.48
24.86
27.12
28.64
29.52
29.23
27.24
23.32
17.89
11.77
5.80
0.71
-3.41
-6.60
-8.67
-9.15
-7.67
-4.26
0.28
4.64
7.79
9.30
9.85
10.73
13.18
17.62
23.51
29.66
34.76
39.15
42.82
45.98
48.99
52.14
55.65
59.78
64.81
70.98
78.31
86.19
93.74
100.03
104.17
105.76
104.77
101.53
96.57
90.49
83.78
76.97
70.58
64.92
60.03
55.58
51.03
45.84
39.70
32.55
24.72
16.72
9.03
1.88
-4.75
-11.12
-17.48
-23.90
-30.18
-35.84
-40.34
-43.33
-44.74
-44.81
-43.98
-42.65
-41.10
-39.46
-37.78
-36.18
-34.96
-34.52
-35.27
-37.37
-40.65
-44.64
-48.71
-52.33
-55.19
-57.30
-58.88
-60.20
-61.41
-62.48
-63.29
-63.68
-63.68
-63.43
-63.26
-63.51
-64.35
-65.60
-66.69
-66.83
-65.25
-61.51
-55.65
-48.23
-40.16
-32.44
-25.92
-21.14
-18.28
-17.16
-17.41
-18.53
-20.01
-21.45
-22.71
-23.85
-25.08
-26.53
-28.16
-29.77
-31.06
-31.91
-32.40
-32.89
-33.74
-35.21
-37.26
-39.54
-41.57
-42.80
-42.81
-41.26
-37.85
-32.39
-24.88
-15.65
-5.43
4.65
13.38
19.73
23.14
23.73
22.09
19.10
15.67
12.46
9.81
7.78
6.22
4.93
3.66
2.23
0.48
-1.59
-3.88
-6.26
-8.63
-11.06
-13.73
-16.88
-20.59
-24.66
-28.57
-31.51
-32.62
-31.21
-27.05
-20.43
-12.17
-3.34
4.93
11.75
16.53
19.02
19.20
17.27
13.57
8.51
2.67
-3.46
-9.39
-14.82
-19.60
-23.71
-27.28
-30.42
-33.23
-35.80
-38.17
-40.41
-42.67
-45.31
-48.79
-53.43
-59.07
-64.84
-69.21
-70.40
-67.03
-58.68
-46.20
-31.34
-16.19
-2.50
8.75
17.24
23.04
26.32
27.20
25.88
22.92
19.16
15.52
12.73
10.98
10.04
9.54
9.32
9.54
10.65
12.93
16.36
20.55
24.88
28.69
31.45
32.75
32.32
30.21
26.89
23.26
20.53
19.84
21.80
26.32
32.65
39.70
46.43
52.10
56.28
58.72
59.24
57.86
54.80
50.58
45.91
41.41
37.38
33.70
29.93
25.55
20.28
14.16
7.66
1.36
-4.38
-9.67
-15.10
-21.48
-29.45
-39.11
-50.02
-61.28
-71.86
-80.64
-86.51
-88.40
-85.50
-77.64
-65.64
-51.34
-37.10
-25.09
-16.57
-11.59
-9.24
-8.31
-7.96
-7.89
-8.29
-9.32
-10.80
-12.15
-12.62
-11.64
-9.15
-5.71
-2.23
0.29
1.18
0.18
-2.59
-6.84
-12.31
-18.75
-25.83
-32.93
-39.07
-42.98
-43.50
-40.01
-32.84
-23.26
-13.09
-4.04
2.89
7.65
10.88
13.49
16.03
18.55
20.54
21.30
20.23
17.13
12.28
6.42
0.58
-4.33
-7.88
-10.55
-13.88
-20.22
-32.12
-51.66
-79.78
-115.63
-156.32
-197.20
-232.85
-258.50
-271.40
-271.32
-260.62
-243.19
-223.13
-203.41
-185.36
-168.89
-153.12
-136.92
-118.91
-97.99
-73.73
-46.72
-18.49
8.72
32.55
51.28
64.42
73.82
82.02
90.73
100.18
109.29
116.55
120.56
120.49
116.28
110.60
106.09
104.20
105.12
108.92
116.36
128.33
144.93
164.99
189.44
217.79
247.29
273.58
292.84
303.66
306.69
303.94
297.94
295.46
301.54
316.88
337.84
359.20
377.38
390.98
400.33
380.26
318.30
221.73
114.19
17.91
-57.55
-112.55
-151.38
-178.29
-196.27
-203.32
-198.43
-184.15
-164.88
-146.86
-133.57
-125.91
-123.43
-125.48
-128.93
-132.21
-136.44
-144.33
-157.57
-174.61
-191.61
-204.63
-210.47
-206.93
-195.50
-180.89
-168.41
-160.78
-156.25
-150.10
-137.26
-114.67
-81.29
-38.95
8.13
54.08
92.54
118.26
128.24
122.84
106.20
85.37
67.72
58.22
58.01
64.79
74.77
84.47
91.67
95.22
94.27
87.89
75.36
56.82
33.79
8.95
-14.55
-34.19
-48.84
-58.82
-65.50
-70.40
-74.59
-78.35
-81.26
-82.61
-81.80
-78.75
-73.84
-67.79
-61.32
-54.84
-48.20
-40.67
-31.03
-17.94
-0.57
20.90
44.97
69.11
90.59
107.39
118.84
125.78
129.95
133.21
136.88
141.26
145.81
149.50
151.32
150.83
148.30
144.66
141.04
138.04
135.35
131.58
124.90
113.79
97.82
77.82
55.49
32.69
10.90
-8.97
-26.27
-40.24
-49.86
-54.05
-52.19
-44.56
-32.60
-18.74
-5.79
3.80
8.67
8.84
5.62
0.95
-3.51
-6.70
-8.40
-8.80
-8.33
-7.29
-5.64
-3.27
-0.18
3.01
5.42
6.25
5.17
2.39
-1.32
-4.81
-6.76
-6.07
-2.52
3.57
11.66
21.07
30.85
39.93
47.26
52.08
54.04
52.04
45.84
36.80
27.49
20.32
16.54
16.03
17.66
19.89
18.74
11.67
-0.77
-15.45
-29.01
-39.46
-46.44
-50.65
-53.39
-60.35
-75.75
-99.60
-127.88
-155.66
-179.71
-198.92
-214.00
-226.99
-246.06
-277.55
-322.08
-374.62
-428.38
-477.86
-519.09
-549.19
-533.01
-453.99
-325.71
-184.24
-61.28
29.70
89.50
125.04
144.15
153.21
151.30
137.88
116.40
93.79
76.08
65.55
61.29
60.92
63.32
64.06
60.72
54.48
49.08
47.28
48.97
51.97
54.05
53.78
48.19
36.25
19.92
3.37
-9.34
-15.70
-16.61
-13.00
-6.04
1.74
8.36
13.14
16.56
19.27
21.37
22.42
22.02
19.68
14.57
6.48
-3.69
-13.91
-21.63
-24.49
-21.02
-10.79
5.14
24.48
44.39
62.22
76.17
85.67
91.19
93.78
94.65
94.48
93.40
91.31
88.12
84.11
79.86
75.98
72.86
70.43
68.15
65.36
61.69
57.01
51.36
44.62
36.61
27.34
17.39
8.09
1.36
-0.59
3.63
14.06
29.22
46.73
64.06
79.15
90.68
98.12
102.18
103.73
103.38
101.32
97.65
92.67
86.77
80.31
73.53
68.03
65.01
64.74
66.41
68.87
71.21
72.74
72.87
71.02
69.01
68.34
69.47
71.86
75.11
79.66
86.34
95.59
106.84
121.58
139.98
160.32
179.47
194.69
204.85
210.18
211.31
190.68
139.88
63.67
-21.65
-99.16
-159.47
-200.76
-225.42
-237.45
-240.98
-236.90
-226.15
-211.21
-196.00
-183.91
-175.99
-170.57
-164.28
-153.66
-134.83
-107.18
-74.40
-43.06
-19.73
-8.43
-9.97
-22.32
-40.51
-58.24
-68.78
-67.39
-53.04
-28.53
0.55
27.63
46.27
53.25
49.25
37.08
19.70
-0.62
-21.99
-42.33
-59.43
-71.59
-78.31
-80.35
-79.24
-76.38
-72.39
-67.05
-59.70
-50.06
-38.74
-27.00
-16.62
-9.03
-5.07
-4.26
-5.61
-7.69
-9.14
-8.98
-6.82
-3.09
1.08
4.32
5.59
4.87
3.34
2.88
5.16
10.74
18.62
26.53
32.08
33.87
31.96
27.92
23.86
21.49
21.40
23.00
25.44
28.17
31.39
35.09
38.74
40.85
39.68
34.20
24.92
14.07
4.78
-0.46
-0.98
2.49
7.27
10.89
12.25
11.91
11.43
12.38
15.54
20.50
26.31
31.66
35.50
37.65
38.18
37.39
35.63
33.15
29.82
25.97
22.38
20.36
21.11
24.97
31.11
37.82
43.27
45.84
45.31
42.65
39.44
37.09
36.04
35.58
33.84
31.26
26.92
20.20
11.14
0.63
-9.89
-18.94
-25.41
-29.00
-30.02
-29.60
-28.61
-27.58
-26.77
-26.34
-26.56
-27.57
-29.17
-30.56
-30.76
-28.62
-23.37
-15.01
-4.32
7.45
18.94
29.02
36.85
41.80
43.79
43.34
41.61
40.04
39.98
42.16
46.39
51.41
55.07
54.95
48.99
36.22
17.40
-4.89
-26.77
-44.24
-54.67
-57.88
-56.21
-53.56
-53.81
-59.38
-70.51
-85.57
-101.95
-117.07
-129.08
-137.00
-140.59
-140.09
-136.13
-129.65
-121.77
-113.55
-105.73
-98.54
-91.67
-84.72
-77.50
-70.26
-63.60
-58.13
-54.01
-50.82
-47.66
-43.56
-37.92
-30.67
-22.33
-13.87
-6.51
-1.64
-0.52
-3.85
-11.23
-20.82
-29.52
-33.93
-31.63
-22.31
-8.12
7.07
19.10
25.09
24.28
17.91
8.10
-3.38
-15.94
-30.05
-46.58
-65.84
-87.31
-109.87
-132.33
-153.67
-172.72
-187.71
-196.16
-195.62
-184.97
-165.48
-140.94
-116.39
-96.21
-82.43
-74.34
-69.35
-64.74
-59.00
-52.29
-45.90
-41.12
-38.55
-37.85
-38.26
-39.18
-40.78
-43.98
-49.96
-59.34
-71.51
-84.52
-95.56
-102.01
-102.37
-96.84
-87.02
-74.98
-62.25
-49.19
-35.34
-20.28
-4.70
9.33
19.00
22.15
18.40
9.56
-1.09
-10.22
-15.71
-17.31
-16.29
-14.53
-13.63
-14.47
-17.26
-22.05
-28.94
-38.03
-48.98
-60.63
-70.87
-76.99
-76.47
-67.89
-51.48
-29.20
-4.06
20.74
42.65
60.34
73.55
82.83
89.14
93.49
96.92
100.36
104.66
110.47
118.03
127.10
136.82
145.94
153.02
156.75
156.30
151.46
142.65
130.78
117.04
102.76
89.40
78.55
71.92
71.18
77.56
91.38
111.72
136.30
161.87
185.04
203.14
214.89
220.47
221.07
218.26
213.36
207.22
200.31
192.91
185.34
177.83
170.42
162.78
154.30
144.40
132.84
120.01
106.78
94.28
83.51
75.08
69.08
65.14
62.68
61.12
60.11
59.51
59.33
59.64
60.37
61.30
61.93
61.67
59.87
56.09
50.24
42.60
33.77
24.37
14.86
5.39
-4.10
-13.61
-22.93
-31.54
-38.75
-43.96
-46.94
-47.91
-47.48
-46.40
-45.36
-44.86
-45.28
-46.85
-49.71
-53.79
-58.66
-63.48
-67.04
-68.06
-65.51
-58.96
-48.76
-35.90
-21.72
-7.50
5.84
17.74
27.87
35.88
41.34
43.80
43.14
39.82
34.83
29.52
25.10
22.25
20.97
20.61
20.29
19.25
17.18
14.23
10.86
7.49
4.35
1.32
-1.85
-5.44
-9.60
-14.34
-19.63
-25.39
-31.42
-37.19
-41.81
-44.15
-43.16
-38.30
-29.74
-18.37
-5.49
7.55
19.60
29.88
37.98
43.74
47.14
48.31
47.47
44.93
41.19
36.83
32.46
28.52
25.18
22.34
19.71
17.04
14.25
11.48
8.93
6.64
4.38
1.79
-1.57
-5.88
-10.95
-16.33
-21.47
-25.98
-29.79
-33.15
-36.46
-40.13
-44.45
-49.47
-55.00
-60.59
-65.56
-69.03
-70.08
-67.93
-62.11
-52.67
-40.25
-25.94
-11.10
2.93
15.08
24.68
31.51
35.71
37.68
37.88
36.80
34.88
32.51
30.09
27.87
25.99
24.42
23.07
21.73
20.22
18.42
16.25
13.73
10.86
7.61
4.01
0.05
-4.17
-8.45
-12.62
-16.58
-20.38
-24.22
-28.19
-32.16
-35.64
-37.91
-38.27
-36.32
-32.17
-26.40
-19.83
-13.31
-7.56
-3.14
-0.39
0.55
-0.15
-2.02
-4.26
-5.92
-6.14
-4.34
-0.37
5.44
12.33
19.22
24.98
28.66
29.78
28.43
25.24
21.03
16.54
12.13
7.80
3.38
-1.17
-5.67
-9.75
-13.08
-15.54
-17.30
-18.58
-19.48
-19.88
-19.56
-18.49
-16.93
-15.30
-13.92
-12.63
-10.82
-7.66
-2.71
3.80
10.92
17.47
22.62
26.37
29.58
33.47
38.96
46.18
54.44
62.54
69.43
74.63
78.41
81.48
84.49
87.58
90.38
92.19
92.38
90.34
85.38
76.55
62.90
44.09
21.22
-2.77
-23.71
-37.57
-42.11
-37.81
-27.66
-15.67
-5.34
1.40
4.35
4.27
2.05
-1.71
-6.69
-12.32
-17.58
-21.49
-23.83
-25.58
-28.68
-35.18
-46.19
-61.26
-78.12
-93.45
-104.23
-109.01
-107.98
-102.51
-94.44
-85.61
-77.85
-72.36
-69.21
-67.29
-64.84
-59.99
-51.83
-41.12
-30.16
-23.23
-24.25
-33.35
-46.00
-56.24
-60.55
-59.25
-56.32
-54.41
-54.65
-56.53
-58.54
-59.47
-59.41
-58.21
-56.82
-56.17
-56.34
-56.87
-56.66
-54.47
-49.71
-42.91
-35.34
-28.43
-22.96
-18.62
-14.77
-10.57
-5.37
0.77
7.01
12.13
15.01
15.21
13.30
10.41
8.05
7.63
10.04
15.38
23.06
31.94
40.88
49.11
56.25
62.36
67.75
72.47
76.02
77.48
75.78
70.39
61.68
50.77
39.10
27.82
17.37
7.60
-1.83
-10.92
-19.13
-25.58
-29.60
-31.19
-31.16
-30.86
-31.54
-33.91
-37.77
-42.09
-45.44
-46.52
-44.52
-39.39
-31.72
-22.35
-12.15
-1.81
8.18
17.33
25.10
30.90
34.24
35.01
33.53
30.49
26.66
22.65
18.72
14.81
10.63
5.84
0.18
-6.44
-13.90
-21.89
-29.98
-37.67
-44.62
-50.72
-56.13
-61.27
-66.45
-71.74
-76.78
-80.90
-83.26
-83.14
-80.09
-73.96
-65.00
-53.83
-41.49
-29.43
-19.15
-11.91
-8.34
-8.18
-10.54
-14.21
-18.10
-21.52
-24.24
-26.23
-27.58
-28.43
-28.96
-29.42
-30.04
-30.83
-31.54
-31.82
-31.40
-30.50
-29.84
-30.44
-33.09
-37.74
-43.26
-47.68
-48.90
-45.53
-37.44
-25.71
-12.14
1.47
13.93
24.75
33.85
41.26
46.81
50.31
51.76
51.57
50.45
49.19
48.30
47.81
47.41
46.61
45.05
42.67
39.77
36.71
33.73
30.83
27.72
24.12
19.88
15.22
10.79
7.65
6.85
9.01
14.07
21.22
29.12
36.33
41.63
44.37
44.59
42.64
38.76
32.97
25.23
15.79
5.35
-4.92
-13.65
-19.34
-21.23
-19.63
-15.55
-10.10
-4.04
2.19
8.17
13.30
17.78
21.65
24.85
27.58
30.78
36.07
45.03
58.40
75.64
96.40
118.88
140.10
156.75
166.80
170.16
168.34
163.42
157.22
152.59
150.67
150.61
150.34
148.08
143.12
135.45
125.07
100.24
56.70
-0.21
-57.98
-105.75
-139.30
-159.51
-169.00
-169.85
-163.07
-147.18
-122.49
-91.98
-61.27
-36.78
-23.24
-21.81
-29.84
-42.00
-50.75
-51.20
-42.17
-25.75
-6.39
10.49
20.43
20.84
11.29
-5.84
-28.43
-53.42
-77.51
-97.09
-108.83
-109.83
-98.98
-78.31
-47.48
-15.61
7.89
17.20
15.31
7.96
1.05
-1.87
-1.06
2.60
5.46
4.99
0.47
-7.02
-15.63
-22.95
-26.89
-27.29
-25.38
-24.15
-25.91
-31.69
-41.15
-53.03
-65.23
-75.60
-83.67
-89.53
-93.83
-96.37
-96.40
-93.60
-89.10
-84.91
-77.47
-65.64
-50.01
-32.62
-14.88
3.14
21.74
40.68
59.60
78.18
95.05
108.68
118.67
123.51
121.91
113.47
98.78
79.86
59.53
39.92
22.67
8.77
-1.83
-10.09
-16.50
-22.27
-28.19
-34.30
-39.87
-43.17
-42.13
-35.66
-24.53
-11.60
-1.12
3.64
1.23
-7.92
-21.86
-37.49
-51.26
-59.54
-59.29
-49.18
-29.33
-2.18
27.89
56.09
79.36
97.24
111.20
122.72
126.68
117.50
92.49
54.80
12.22
-26.17
-53.38
-66.56
-67.33
-60.49
-50.62
-40.77
-32.14
-24.86
-18.94
-15.01
-14.20
-17.35
-24.40
-33.40
-41.38
-45.54
-44.84
-38.71
-28.11
-15.17
-2.49
7.53
13.62
15.69
14.62
11.87
9.08
7.51
7.59
9.13
11.46
13.66
15.22
15.71
14.86
12.73
9.92
7.09
5.18
4.97
6.68
9.85
13.37
16.04
17.32
18.29
20.03
23.87
30.75
40.40
51.48
61.80
69.10
70.11
64.72
54.02
39.79
23.89
7.42
-9.15
-25.76
-42.11
-57.40
-70.07
-78.78
-83.47
-83.96
-81.13
-76.34
-70.81
-65.12
-59.19
-52.59
-45.31
-37.93
-31.35
-26.59
-24.18
-23.97
-25.27
-27.13
-28.50
-28.34
-25.84
-20.47
-12.31
-1.95
9.63
21.53
33.28
43.50
51.40
56.56
58.87
58.47
56.03
52.74
50.12
49.44
51.18
55.03
59.90
64.56
68.14
70.40
71.49
71.50
70.19
66.86
60.90
51.87
39.67
24.65
7.53
-10.38
-27.21
-40.65
-48.49
-49.04
-41.89
-27.94
-9.16
11.93
32.72
50.72
63.70
69.89
68.59
60.49
47.69
33.17
19.68
8.78
0.46
-6.56
-13.94
-22.78
-33.19
-44.43
-55.36
-65.03
-72.92
-79.00
-83.56
-87.10
-90.26
-93.69
-98.00
-103.54
-110.21
-117.36
-123.64
-127.14
-125.90
-118.58
-105.02
-86.70
-66.26
-46.78
-30.72
-19.17
-11.85
-7.58
-5.20
-4.13
-4.44
-6.47
-10.32
-15.46
-20.82
-25.10
-27.19
-26.51
-23.22
-18.35
-13.65
-11.16
-12.62
-18.77
-28.95
-41.09
-52.25
-59.44
-60.36
-53.94
-40.44
-21.32
1.15
24.36
46.02
64.63
79.78
91.86
101.44
108.43
111.66
109.35
100.26
84.88
66.00
48.02
35.34
30.62
33.74
42.18
52.30
60.91
65.97
66.57
62.21
52.51
37.64
19.23
0.87
-12.55
-16.77
-10.35
4.06
20.64
33.03
37.50
34.94
30.37
30.24
39.05
57.06
80.28
102.55
118.33
124.74
121.85
111.57
95.85
75.72
51.36
23.04
-7.84
-38.67
-66.35
-88.86
-106.24
-120.67
-135.16
-151.77
-170.08
-186.96
-197.87
-198.98
-189.00
-169.64
-144.81
-118.69
-94.14
-72.14
-52.21
-33.73
-16.86
-2.91
6.33
9.67
7.34
1.21
-5.96
-11.57
-14.30
-14.46
-13.67
-13.71
-15.51
-18.63
-21.65
-23.23
-23.01
-21.95
-21.68
-23.48
-27.38
-31.99
-35.07
-34.42
-28.47
-16.52
1.45
25.05
53.38
84.93
117.36
147.74
173.03
190.79
199.76
200.04
192.85
179.96
163.15
143.93
123.56
103.38
84.95
69.99
59.86
55.04
54.71
56.87
59.02
58.96
55.35
47.89
37.05
23.85
9.63
-3.99
-15.22
-22.44
-24.59
-21.49
-13.85
-2.96
9.71
22.74
34.90
45.03
52.16
55.53
54.90
50.65
43.70
35.24
26.35
17.95
10.83
5.93
4.29
6.94
14.52
26.85
42.73
59.96
75.90
88.25
95.71
98.24
96.83
93.04
88.39
83.91
79.83
75.99
72.08
67.94
63.40
58.12
51.75
44.08
35.34
25.70
15.47
4.92
-5.75
-16.57
-27.66
-38.83
-49.36
-58.15
-64.84
-69.64
-73.22
-76.32
-79.64
-83.81
-89.07
-95.13
-101.23
-107.17
-112.91
-118.45
-123.54
-128.15
-132.56
-136.78
-140.22
-136.94
-122.52
-97.00
-65.27
-32.81
-2.64
24.57
49.04
70.60
88.37
100.77
108.34
112.28
114.88
118.23
122.60
126.05
125.34
117.93
102.65
80.38
52.89
22.52
-8.68
-40.39
-73.81
-110.19
-149.00
-187.55
-221.43
-246.45
-261.02
-265.45
-261.49
-251.36
-236.99
-219.67
-200.27
-179.81
-160.04
-143.95
-132.65
-124.77
-117.17
-106.82
-92.14
-73.26
-51.65
-21.49
15.52
52.92
83.99
105.53
117.47
121.31
119.87
117.67
118.57
124.08
134.94
150.99
171.09
192.00
207.06
210.17
199.78
179.38
154.10
128.32
104.13
81.53
59.62
38.50
18.52
2.36
-7.83
-11.97
-11.84
-10.33
-10.61
-15.23
-25.53
-42.20
-62.81
-86.84
-114.60
-145.92
-178.93
-210.19
-235.45
-250.69
-254.15
-247.50
-233.25
-213.28
-188.38
-158.60
-124.85
-89.04
-52.72
-12.35
28.56
64.90
93.95
115.91
132.86
144.72
150.61
152.96
155.44
157.55
160.15
163.53
166.33
165.85
157.81
138.61
108.78
69.79
23.09
-26.83
-73.82
-112.15
-132.25
-129.39
-118.21
-106.66
-92.89
-75.44
-51.69
-20.40
16.21
52.54
80.51
94.19
94.88
87.68
78.35
71.78
69.63
67.82
61.63
46.95
23.92
-1.38
-22.40
-35.82
-41.85
-44.43
-47.11
-51.88
-59.75
-70.40
-81.77
-92.43
-98.72
-99.68
-96.19
-90.41
-84.43
-79.43
-75.18
-70.15
-63.38
-55.83
-48.48
-42.03
-36.33
-30.27
-22.60
-12.50
0.19
14.82
30.72
45.34
57.24
66.04
72.13
76.12
78.60
79.94
80.31
79.78
78.21
75.76
72.81
69.73
66.76
63.84
60.73
57.14
52.92
47.93
42.26
36.00
29.13
21.63
13.47
4.80
-4.14
-13.12
-22.06
-30.94
-39.72
-48.23
-55.94
-62.05
-65.63
-66.02
-63.08
-57.23
-49.33
-40.40
-31.36
-22.79
-15.03
-8.24
-2.49
2.16
5.86
8.94
11.91
15.21
19.03
23.17
27.08
30.10
31.68
31.75
30.73
29.49
29.06
30.24
33.26
37.65
42.42
46.34
48.32
47.71
44.37
38.72
31.60
24.13
17.55
12.85
10.55
10.62
12.66
16.17
20.91
26.81
33.73
41.06
47.62
51.89
52.61
49.39
42.85
34.26
24.95
15.72
6.75
-2.28
-11.81
-22.11
-33.24
-44.95
-56.69
-67.59
-76.64
-82.91
-85.97
-86.16
-84.54
-82.60
-81.62
-82.27
-84.41
-87.33
-90.08
-91.74
-91.54
-88.91
-83.37
-74.67
-62.82
-48.23
-31.69
-14.29
2.79
18.43
31.86
42.62
50.64
56.09
59.29
60.61
60.36
58.76
56.01
52.41
48.44
44.74
41.95
40.46
40.18
40.47
40.34
38.70
34.85
28.70
20.78
12.00
3.35
-4.44
-10.98
-16.13
-19.84
-21.91
-22.11
-20.27
-16.51
-11.37
-5.70
-0.42
3.77
6.54
8.03
8.63
8.73
8.54
7.95
6.70
4.48
1.12
-3.24
-8.21
-13.25
-17.73
-21.10
-22.95
-23.24
-22.30
-20.88
-19.92
-20.21
-22.06
-25.13
-28.54
-31.10
-31.81
-29.97
-25.32
-17.95
-8.21
3.23
15.41
27.20
37.44
45.25
50.10
51.89
50.89
47.58
42.68
37.06
31.54
26.78
23.02
19.88
16.38
11.28
3.55
-7.18
-20.31
-34.55
-48.26
-60.07
-69.19
-75.43
-79.01
-80.25
-79.45
-76.95
-73.32
-69.36
-65.76
-62.82
-60.11
-56.77
-52.02
-45.78
-38.84
-32.62
-28.44
-27.03
-28.16
-30.89
-33.99
-36.47
-37.88
-38.18
-37.57
-36.31
-34.65
-32.93
-31.72
-31.76
-33.80
-38.28
-44.90
-52.58
-59.47
-63.58
-63.31
-58.06
-48.40
-35.83
-22.20
-9.19
2.03
10.95
17.45
21.61
23.59
23.61
22.06
19.49
16.63
14.08
12.27
11.42
11.64
13.03
15.73
19.85
25.21
31.21
36.91
41.31
43.82
44.58
44.53
45.06
47.56
52.92
61.20
71.75
83.40
94.93
105.33
113.94
120.45
124.84
127.26
128.03
127.59
126.45
125.12
123.97
123.14
122.37
121.04
118.22
112.86
104.17
91.75
75.84
57.17
36.83
15.93
-4.58
-23.91
-41.34
-55.99
-66.94
-73.38
-74.86
-71.60
-64.40
-54.46
-43.13
-31.65
-20.98
-11.84
-4.69
0.23
2.90
3.60
2.85
1.45
0.15
-0.46
-0.19
0.87
2.62
5.29
9.76
17.30
29.06
45.33
65.37
87.49
109.82
130.84
149.62
165.73
178.86
188.69
194.81
196.83
194.25
186.44
172.63
152.32
125.89
95.19
63.30
33.80
9.56
-8.16
-19.86
-27.07
-31.42
-33.88
-34.72
-34.03
-32.27
-30.48
-29.99
-31.94
-36.83
-44.57
-54.45
-65.41
-76.20
-85.44
-91.70
-93.69
-90.63
-82.54
-70.39
-55.81
-40.63
-26.44
-14.37
-5.02
1.49
5.40
7.33
8.01
8.22
8.79
10.11
11.85
13.18
13.26
11.62
8.35
3.83
-1.58
-7.27
-13.22
-20.22
-29.28
-40.90
-54.41
-68.11
-79.80
-87.51
-89.22
-84.41
-74.67
-62.97
-52.19
-43.95
-38.00
-32.74
-25.79
-13.80
5.15
30.16
57.64
82.84
101.30
110.03
107.85
89.01
54.39
12.58
-24.34
-48.25
-57.78
-57.02
-50.69
-42.15
-33.78
-26.32
-20.49
-17.04
-16.71
-18.96
-22.06
-23.87
-23.24
-20.57
-16.57
-12.73
-10.98
-12.96
-19.06
-28.37
-39.14
-49.71
-58.95
-65.69
-69.45
-70.63
-70.38
-69.91
-70.13
-71.34
-73.37
-75.73
-77.58
-78.41
-78.40
-78.41
-79.31
-81.49
-84.50
-87.12
-87.75
-84.80
-77.38
-65.59
-50.63
-34.25
-18.33
-4.25
7.23
16.04
22.54
27.28
30.71
33.11
34.55
34.96
34.27
32.60
30.32
28.03
26.44
26.10
27.17
29.28
31.64
33.23
33.19
30.96
26.40
19.71
11.45
2.46
-6.18
-13.22
-17.47
-18.15
-15.19
-9.34
-2.05
4.99
10.33
13.20
13.53
11.87
9.03
5.79
2.79
0.52
-0.60
-0.39
1.05
3.39
6.15
8.94
11.60
14.31
17.30
20.64
23.94
26.51
27.65
26.99
24.56
20.71
16.13
11.53
7.75
5.25
4.25
4.83
7.06
10.89
16.04
22.22
28.65
34.48
38.30
38.79
35.19
27.82
17.87
6.86
-3.52
-12.27
-18.79
-23.64
-28.01
-33.10
-39.68
-47.98
-57.92
-68.78
-80.11
-86.42
-82.98
-68.72
-47.59
-25.50
-6.36
7.15
17.92
28.31
39.82
52.18
64.23
74.86
82.94
87.96
89.88
89.21
85.52
78.81
69.20
57.25
43.83
30.05
17.02
5.39
-4.48
-13.82
-23.29
-32.86
-41.99
-50.26
-57.48
-63.60
-68.75
-73.22
-78.96
-87.20
-97.79
-109.02
-118.47
-123.65
-122.76
-115.57
-96.37
-66.71
-34.27
-7.73
9.32
18.53
23.47
26.68
28.74
28.94
25.46
18.02
7.59
-3.19
-12.27
-18.51
-21.35
-20.38
-15.64
-9.06
-3.38
-1.58
-6.00
-17.89
-35.94
-56.40
-73.59
-81.74
-77.58
-60.91
-34.24
-1.73
32.09
63.56
90.28
111.08
125.67
134.34
138.06
138.21
136.03
131.98
125.65
116.07
102.57
85.48
66.64
48.77
34.15
23.59
16.04
9.34
1.24
-9.47
-23.89
-40.57
-55.58
-64.64
-66.35
-62.98
-58.88
-57.95
-61.74
-68.73
-74.25
-71.97
-56.30
-25.01
18.81
66.75
107.41
130.87
132.67
116.33
90.94
66.62
49.84
41.39
37.60
33.34
25.72
14.12
0.81
-11.20
-19.39
-22.33
-19.48
-11.27
0.68
13.57
21.98
21.68
11.27
-7.04
-28.65
-48.46
-63.09
-72.86
-78.55
-81.29
-80.99
-76.40
-66.11
-50.40
-31.29
-11.94
4.57
16.19
22.05
22.71
19.74
14.96
9.27
3.75
-0.03
-0.64
2.06
5.99
7.75
4.05
-6.75
-24.95
-46.12
-62.29
-64.50
-47.06
-10.88
36.53
83.63
118.45
130.11
113.08
68.81
4.63
-69.02
-141.00
-200.87
-240.34
-244.66
-209.50
-146.98
-79.23
-24.49
9.58
23.89
23.52
14.36
1.44
-13.44
-29.46
-44.44
-55.29
-59.78
-57.40
-48.91
-35.68
-19.47
-3.23
10.49
20.55
27.63
33.03
37.62
41.55
44.37
45.40
43.34
37.67
29.32
20.26
12.11
5.33
-0.40
-5.71
-10.99
-16.64
-22.60
-28.33
-33.22
-37.11
-40.33
-43.10
-45.04
-45.12
-42.11
-35.10
-23.94
-9.34
7.23
24.07
40.03
54.67
67.93
79.83
90.21
98.64
104.59
107.57
107.26
104.00
98.26
90.49
81.18
71.10
61.39
53.30
47.94
45.94
48.01
53.85
61.83
69.46
74.37
75.19
71.75
64.78
55.45
46.09
38.39
32.75
28.65
25.63
23.80
23.57
25.13
28.25
33.90
42.41
52.98
63.95
73.73
81.35
86.44
89.16
80.44
57.34
24.96
-6.43
-29.26
-42.12
-47.91
-50.41
-52.33
-54.87
-56.61
-56.37
-54.21
-51.73
-50.54
-51.56
-54.71
-59.16
-63.43
-64.34
-60.11
-50.64
-38.21
-25.83
-15.96
-9.56
-6.04
-4.04
-1.75
0.22
0.97
-1.48
-8.25
-19.20
-32.94
-47.55
-61.32
-72.63
-80.46
-84.10
-84.96
-83.11
-79.14
-73.79
-67.69
-61.10
-54.04
-46.50
-37.54
-27.89
-17.44
-5.75
7.24
20.73
32.90
41.49
45.11
44.03
40.00
36.01
34.46
36.26
40.56
45.61
48.85
48.47
43.95
35.95
26.38
17.40
10.76
7.31
6.77
7.93
9.40
10.11
9.51
7.82
5.58
3.28
1.16
-0.75
-2.59
-4.24
-5.34
-5.46
-4.46
-2.73
-1.43
-2.10
-5.46
-11.59
-19.39
-26.88
-31.89
-33.01
-29.91
-23.27
-14.16
-3.50
8.15
20.65
33.87
47.47
60.78
73.08
83.90
93.07
100.49
105.74
107.80
105.13
96.17
80.23
58.16
32.55
6.97
-15.28
-32.28
-43.95
-51.58
-56.90
-61.25
-65.28
-69.26
-73.54
-78.51
-84.18
-89.76
-93.56
-93.86
-89.85
-82.35
-73.67
-66.46
-62.63
-62.71
-65.99
-71.01
-76.25
-80.33
-82.10
-80.74
-75.90
-67.92
-57.82
-47.00
-36.70
-27.76
-20.46
-14.73
-10.27
-6.68
-3.61
-0.86
1.35
2.39
1.49
-1.71
-6.81
-12.44
-16.68
-17.90
-15.29
-9.09
-0.34
9.68
19.94
29.83
39.28
48.56
58.12
68.20
78.64
88.72
97.48
104.04
107.98
109.30
108.28
105.07
99.63
91.95
82.28
71.22
59.67
48.61
38.55
29.23
19.79
9.19
-3.31
-17.94
-34.16
-50.62
-65.00
-74.49
-76.55
-69.77
-54.48
-32.74
-7.59
17.78
41.28
62.35
81.54
99.44
115.98
130.15
140.46
145.68
144.64
137.57
126.26
113.68
102.68
95.10
91.37
90.46
90.31
87.02
77.62
61.34
39.50
14.19
-12.77
-39.99
-66.38
-90.91
-115.01
-139.46
-163.37
-184.69
-201.76
-214.05
-221.67
-224.86
-223.74
-221.59
-220.97
-222.43
-225.01
-228.07
-232.21
-238.27
-246.49
-236.80
-198.82
-138.15
-71.93
-14.91
27.15
55.18
73.17
85.40
95.30
101.66
102.78
98.74
91.52
83.61
76.28
71.24
69.63
71.99
75.68
78.07
78.06
75.97
72.36
67.43
61.36
54.57
47.93
41.07
34.02
28.71
27.48
31.73
40.77
51.75
60.41
62.68
55.61
39.45
17.84
-3.95
-21.46
-32.90
-39.29
-43.23
-46.88
-51.18
-55.52
-58.52
-59.33
-58.06
-55.66
-53.17
-51.24
-49.70
-48.24
-46.54
-44.19
-40.94
-36.11
-29.08
-19.85
-9.10
2.42
13.50
23.18
31.10
37.07
41.95
46.46
50.72
54.35
57.49
59.62
59.80
56.72
48.16
33.59
14.54
-4.90
-18.46
-19.46
-5.27
21.04
51.88
77.68
93.46
100.14
103.40
102.81
98.74
90.51
76.35
61.25
43.15
22.40
1.49
-19.86
-40.24
-57.96
-72.05
-82.06
-85.63
-81.40
-68.14
-47.29
-23.47
-2.36
11.36
15.40
11.22
3.35
-3.88
-6.84
-3.27
4.02
11.81
17.70
20.30
19.46
15.71
9.34
1.50
-6.25
-12.57
-16.01
-15.61
-13.07
-9.54
-5.82
-2.27
1.71
6.80
12.75
18.75
23.50
26.01
26.42
25.50
23.90
21.62
17.86
11.53
2.37
-8.64
-19.52
-27.83
-31.88
-31.30
-26.93
-20.13
-12.04
-3.00
7.14
18.43
30.33
41.33
49.60
53.89
54.22
51.92
48.88
46.29
43.82
39.70
31.55
17.87
-1.04
-23.09
-45.25
-64.91
-80.73
-92.74
-101.50
-107.19
-109.03
-105.48
-95.16
-77.73
-54.39
-27.63
-0.32
25.16
47.60
66.84
83.25
97.01
107.59
113.58
113.28
105.47
90.18
69.07
44.95
20.77
-1.23
-19.84
-34.36
-43.79
-46.69
-41.98
-30.15
-14.14
1.08
10.42
10.98
3.53
-7.83
-17.68
-21.82
-18.94
-10.63
-0.07
9.91
18.02
24.64
30.96
37.95
45.53
52.47
56.93
57.24
52.49
42.81
29.17
12.94
-4.59
-22.44
-39.96
-56.69
-72.19
-86.01
-97.84
-107.71
-116.05
-123.35
-129.76
-134.59
-136.37
-133.31
-124.16
-108.87
-88.84
-66.42
-44.16
-24.08
-7.20
6.38
17.17
26.01
33.75
41.08
48.45
55.94
63.11
69.16
73.29
75.03
74.53
72.48
69.95
67.86
66.65
66.00
64.84
61.68
55.11
44.39
29.97
13.59
-2.14
-14.38
-20.99
-21.11
-15.32
-5.18
7.36
20.58
33.28
44.68
54.20
61.36
65.82
67.42
66.35
62.94
57.53
50.32
41.50
31.55
21.43
12.60
6.55
4.27
5.81
10.07
15.17
18.93
19.51
16.13
9.36
1.05
-6.13
-9.52
-7.41
0.51
13.16
28.68
45.22
61.49
76.82
90.85
103.18
113.25
120.48
124.62
125.91
125.05
122.93
120.37
118.01
116.15
114.83
113.87
112.77
110.80
107.14
101.00
91.81
79.31
63.54
45.01
24.75
4.44
-13.77
-27.61
-35.29
-35.99
-30.09
-19.02
-4.70
10.94
26.33
40.24
51.68
59.69
63.50
62.71
57.63
49.25
39.03
28.40
18.44
9.62
1.90
-5.00
-11.30
-17.14
-22.46
-27.23
-31.57
-35.86
-40.70
-46.84
-54.89
-65.12
-77.27
-90.59
-104.06
-116.87
-128.44
-138.57
-147.30
-154.97
-162.02
-168.91
-175.98
-183.36
-191.07
-198.92
-206.64
-214.06
-221.24
-228.34
-235.34
-241.68
-246.34
-248.49
-247.35
-242.51
-234.10
-222.95
-210.51
-198.60
-189.01
-183.29
-183.44
-189.91
-200.82
-212.17
-219.27
-218.20
-206.92
-185.63
-156.65
-126.00
-99.04
-78.57
-64.60
-55.86
-51.16
-49.51
-49.94
-51.33
-56.21
-65.78
-78.57
-91.03
-100.04
-104.47
-105.05
-103.39
-101.30
-104.92
-117.66
-138.20
-161.55
-182.88
-200.14
-213.84
-225.36
-205.18
-140.16
-39.48
70.72
166.66
237.40
282.66
307.43
318.35
321.40
315.54
299.38
273.42
240.81
205.80
172.09
142.55
119.05
102.11
87.21
70.53
51.30
31.94
15.55
4.03
-2.31
-4.29
-3.32
-3.13
-5.98
-11.39
-16.41
-17.51
-12.25
0.10
18.65
41.26
63.97
83.36
97.56
106.45
110.84
111.56
109.23
104.35
97.47
88.91
79.26
69.30
59.83
51.35
43.99
37.64
32.11
27.26
22.89
18.75
14.49
9.64
3.70
-3.77
-12.98
-23.63
-34.62
-44.09
-49.64
-49.12
-41.29
-26.34
-5.85
17.78
41.97
64.73
84.78
101.43
114.40
123.51
128.69
130.13
128.32
124.04
118.22
111.67
105.01
98.63
92.69
87.22
82.13
77.16
71.87
65.71
58.00
48.18
35.88
21.14
4.50
-12.92
-29.37
-42.71
-50.86
-52.23
-46.33
-33.97
-17.12
1.66
19.90
35.81
48.45
57.63
63.46
66.09
65.59
62.17
56.36
49.17
41.75
35.08
29.55
25.02
20.94
16.84
12.57
8.37
4.59
1.37
-1.55
-4.71
-8.76
-14.13
-20.87
-28.58
-36.42
-43.20
-47.55
-48.20
-44.38
-36.04
-23.94
-9.42
5.91
20.62
33.58
43.99
51.36
55.44
56.35
54.60
51.05
46.65
42.18
38.02
34.14
30.27
26.24
22.12
18.20
14.81
12.11
9.90
7.70
4.86
0.74
-5.04
-12.57
-21.46
-30.81
-39.25
-45.12
-46.86
-43.46
-34.82
-21.79
-5.98
10.73
26.54
40.07
50.42
57.14
60.16
59.77
56.59
51.51
45.56
39.75
34.83
31.12
28.54
26.64
24.86
22.74
20.05
16.80
13.20
9.42
5.47
1.09
-4.16
-10.74
-18.93
-28.60
-39.10
-49.37
-58.21
-64.63
-68.18
-68.98
-67.63
-64.88
-61.40
-57.67
-53.97
-50.40
-47.02
-43.94
-41.29
-39.11
-37.42
-36.26
-35.79
-36.09
-36.88
-37.67
-37.90
-37.27
-35.77
-33.63
-31.10
-28.19
-24.57
-19.38
-12.05
-2.71
7.92
18.93
29.79
40.40
50.94
61.49
72.76
84.68
96.24
105.91
112.57
116.10
117.17
116.66
115.23
115.11
117.28
120.83
123.49
123.32
119.86
113.96
107.01
100.19
97.50
101.22
110.72
123.00
135.12
145.80
155.45
165.28
176.49
193.97
219.99
252.26
284.65
310.67
326.24
330.28
323.78
282.23
196.77
79.01
-44.15
-148.63
-223.99
-271.26
-296.52
-306.76
-308.06
-300.52
-284.26
-261.53
-236.75
-214.05
-195.55
-181.43
-170.94
-163.37
-154.77
-142.61
-127.15
-111.43
-98.22
-89.04
-83.97
-82.30
-83.46
-84.70
-84.24
-81.97
-79.12
-76.60
-73.95
-69.63
-62.10
-51.17
-36.97
-21.00
-5.72
6.47
14.38
18.28
19.05
20.08
22.75
27.62
34.20
41.34
47.85
53.06
57.06
60.51
64.32
68.97
74.91
82.56
92.27
104.00
116.87
128.93
137.28
139.04
132.19
116.79
95.00
70.14
45.36
22.67
2.65
-15.05
-30.83
-44.97
-57.40
-68.21
-78.08
-88.15
-99.45
-112.15
-125.17
-136.33
-143.32
-144.58
-140.03
-131.26
-121.02
-112.26
-107.03
-105.81
-107.34
-109.13
-108.25
-102.26
-89.87
-71.32
-48.30
-23.61
-0.41
18.53
31.48
38.12
39.61
37.96
35.43
33.72
33.60
34.79
36.29
36.94
35.89
32.93
28.51
23.54
19.06
15.92
14.58
15.02
16.75
18.96
20.61
20.57
17.76
11.37
1.17
-12.17
-26.94
-40.72
-51.10
-56.56
-57.10
-54.10
-49.65
-45.69
-43.20
-42.12
-41.72
-41.30
-40.69
-40.38
-41.11
-43.42
-47.37
-52.44
-57.85
-62.84
-66.80
-69.23
-69.56
-67.23
-61.95
-53.97
-44.45
-35.17
-28.03
-24.35
-24.26
-26.70
-29.72
-31.44
-30.84
-28.27
-25.32
-24.01
-25.60
-29.83
-34.58
-36.65
-32.91
-21.48
-2.29
23.10
52.24
82.45
110.97
135.04
152.11
160.28
159.12
150.13
136.45
121.75
109.03
99.74
93.63
89.33
85.30
80.58
74.84
68.12
60.21
50.37
37.49
20.65
-0.16
-23.78
-48.02
-70.34
-88.61
-101.61
-109.21
-112.12
-111.48
-108.63
-104.88
-101.36
-98.81
-97.41
-96.70
-95.85
-94.06
-90.95
-86.61
-81.57
-76.41
-71.63
-67.44
-63.90
-60.96
-58.56
-56.66
-55.14
-53.68
-51.70
-48.41
-43.09
-35.44
-25.80
-15.15
-4.80
3.98
10.35
13.96
14.83
13.18
9.30
3.57
-3.36
-10.60
-17.18
-22.43
-26.22
-29.01
-31.42
-33.75
-35.68
-36.27
-34.47
-29.46
-20.95
-9.09
5.86
23.76
44.70
68.87
96.32
126.55
158.50
190.38
219.87
244.56
262.46
272.56
274.95
270.61
260.81
246.67
228.72
206.97
181.06
150.63
115.70
77.14
36.93
-2.00
-36.37
-63.70
-83.08
-95.28
-102.13
-105.35
-105.87
-103.73
-98.84
-91.60
-83.25
-75.49
-69.60
-66.04
-64.40
-63.74
-63.07
-61.50
-58.21
-52.53
-44.11
-33.22
-21.08
-9.66
-1.24
2.27
-0.02
-7.73
-19.14
-31.76
-43.06
-51.30
-55.96
-57.77
-58.18
-58.53
-59.52
-61.02
-62.52
-63.73
-64.97
-66.84
-69.67
-72.95
-75.40
-75.57
-72.82
-67.82
-62.33
-58.39
-57.15
-58.41
-60.74
-62.24
-61.51
-58.14
-52.77
-46.63
-41.12
-37.44
-36.41
-38.22
-42.38
-47.76
-52.99
-56.90
-58.87
-58.96
-57.63
-55.36
-52.37
-48.70
-44.48
-40.38
-37.69
-38.09
-43.07
-53.09
-67.12
-82.59
-95.89
-103.31
-102.12
-91.27
-71.61
-45.71
-16.82
11.94
38.19
60.46
78.11
91.06
99.82
105.29
108.35
109.85
110.28
109.54
106.94
101.50
92.32
79.38
63.56
46.25
29.27
14.29
2.32
-6.57
-13.13
-18.65
-23.99
-29.45
-34.97
-39.83
-42.98
-43.34
-40.20
-32.85
-23.34
-14.35
-6.29
0.01
4.67
8.85
14.50
23.62
37.19
54.37
72.97
89.99
102.34
108.28
107.86
102.60
94.80
86.83
80.60
77.60
78.77
84.13
93.23
105.13
118.58
132.25
144.88
155.45
163.38
168.38
170.14
168.61
163.89
156.24
145.97
133.45
119.16
103.84
88.45
73.79
60.44
48.30
36.68
24.49
10.85
-4.40
-20.32
-35.13
-46.81
-53.94
-56.24
-54.59
-50.65
-46.18
-42.78
-41.77
-44.37
-51.79
-64.84
-83.48
-106.37
-130.82
-153.27
-170.28
-179.65
-180.93
-175.31
-164.85
-151.88
-138.67
-127.32
-119.67
-117.14
-120.33
-128.64
-140.20
-151.91
-160.63
-164.25
-162.01
-154.08
-141.03
-123.57
-102.59
-79.39
-54.97
-30.77
-8.43
11.12
28.43
45.05
62.35
80.44
98.13
115.46
132.23
147.60
160.36
169.82
176.00
179.18
179.62
177.57
176.06
176.73
178.25
177.01
170.01
156.64
138.52
118.84
101.42
93.69
100.72
122.48
154.16
189.42
222.66
249.88
269.09
256.83
204.20
123.05
36.70
-38.73
-99.67
-149.02
-190.10
-224.31
-251.47
-267.96
-272.77
-268.36
-259.76
-251.11
-243.81
-237.25
-230.31
-222.64
-212.37
-200.19
-189.97
-186.47
-191.60
-202.78
-214.40
-220.40
-216.64
-200.35
-172.26
-136.15
-97.05
-58.72
-22.97
9.44
37.47
59.25
73.25
78.30
74.28
62.89
47.89
33.97
24.75
21.31
22.06
24.25
25.43
24.76
23.28
23.15
26.19
32.54
40.53
47.63
51.79
52.43
50.50
47.72
45.63
45.04
46.01
48.32
51.96
57.16
64.23
73.10
83.17
93.21
101.73
107.47
109.81
109.05
106.32
103.22
101.31
101.68
104.72
110.20
117.43
125.52
133.66
141.34
148.55
155.90
164.41
175.18
188.73
204.45
220.34
233.41
240.49
239.28
228.98
210.60
186.78
161.46
139.09
123.66
117.69
121.22
131.41
143.08
150.30
148.31
135.18
111.72
80.63
45.16
8.28
-27.55
-60.32
-88.19
-109.68
-123.67
-130.44
-131.84
-130.74
-129.93
-131.35
-135.89
-143.53
-153.40
-163.40
-171.26
-175.25
-174.38
-168.23
-156.90
-141.16
-122.48
-102.74
-82.91
-63.97
-47.09
-33.42
-23.52
-17.28
-14.26
-13.88
-21.13
-36.80
-56.67
-74.15
-85.13
-89.57
-89.49
-87.04
-83.49
-78.75
-72.29
-64.46
-56.93
-51.94
-50.70
-52.55
-55.79
-58.59
-59.93
-58.18
-52.42
-42.42
-28.69
-11.76
8.35
31.13
55.38
79.53
102.19
121.55
135.77
142.88
142.04
134.67
123.17
110.01
97.18
85.72
75.18
64.30
50.65
29.52
1.41
-29.12
-56.01
-72.93
-74.76
-62.36
-38.47
-10.57
10.92
16.61
0.84
-36.65
-89.21
-144.19
-186.31
-202.17
-186.02
-140.58
-75.56
-4.56
58.10
101.93
121.96
119.46
100.56
72.07
40.68
12.16
-8.58
-19.24
-19.54
-12.60
-3.14
8.53
20.02
28.91
29.86
26.00
22.05
24.59
34.10
48.38
64.14
77.03
83.43
81.47
72.19
57.90
41.97
24.81
7.29
-9.51
-26.04
-44.43
-67.60
-97.06
-132.87
-173.02
-217.61
-263.91
-306.46
-339.54
-359.53
-365.77
-359.62
-344.11
-301.28
-229.09
-140.83
-55.70
13.97
65.23
99.97
121.24
131.56
133.17
125.04
108.55
88.02
68.56
53.03
42.00
34.87
30.78
29.22
27.42
24.45
21.12
18.59
16.94
15.45
13.26
10.02
6.05
0.43
-6.01
-11.22
-12.86
-9.44
0.08
15.81
36.81
61.21
85.76
108.20
126.53
138.92
143.75
141.36
133.39
122.40
111.23
102.16
97.77
98.77
103.54
108.29
109.71
104.97
92.48
72.77
42.86
7.09
-25.28
-43.58
-49.57
-48.38
-45.20
-42.94
-42.18
-41.43
-37.69
-29.61
-18.60
-8.36
-1.75
-0.50
-4.87
-13.78
-25.10
-35.39
-41.50
-41.07
-32.91
-16.51
6.49
31.93
53.94
66.93
67.91
56.84
36.19
9.59
-19.25
-47.72
-74.12
-96.90
-114.05
-123.14
-122.50
-112.06
-93.48
-69.62
-43.63
-18.25
4.41
22.97
36.77
46.12
52.23
56.51
59.29
59.45
55.12
44.94
29.47
11.23
-6.21
-20.85
-30.53
-35.38
-37.69
-39.11
-39.53
-36.37
-28.07
-15.50
-1.55
10.16
16.42
16.22
11.33
5.30
1.87
3.55
11.27
24.38
41.03
58.58
74.40
86.61
94.21
96.92
94.68
87.62
76.00
60.47
42.22
23.42
6.99
-4.21
-8.66
-7.30
-3.52
-1.83
-5.81
-16.35
-31.05
-45.34
-54.79
-57.26
-53.81
-48.00
-44.04
-44.68
-50.21
-58.27
-64.63
-63.97
-51.25
-23.61
17.56
65.38
108.53
134.50
134.23
105.64
55.42
-2.96
-54.44
-87.87
-99.16
-90.90
-69.56
-42.12
-14.87
8.51
26.68
39.16
44.73
41.52
28.58
7.18
-18.71
-44.74
-65.65
-76.01
-72.23
-54.56
-27.30
3.13
29.99
47.34
48.71
30.20
-7.28
-58.30
-114.75
-167.81
-209.34
-233.99
-227.36
-186.60
-125.05
-63.35
-15.26
16.01
32.66
37.77
34.93
27.39
17.10
6.79
-0.17
-1.66
2.05
7.41
10.87
10.72
7.74
3.70
2.03
7.47
24.13
52.63
88.26
124.81
153.18
164.95
154.69
122.65
74.74
20.01
-32.83
-78.02
-109.22
-122.67
-117.82
-97.55
-67.13
-32.69
0.34
28.17
49.05
63.41
72.15
76.30
76.51
73.12
66.69
58.28
49.35
41.16
34.47
28.66
22.51
15.18
6.84
-0.99
-6.14
-6.90
-2.95
4.30
11.98
16.86
16.49
9.69
-3.10
-19.66
-36.02
-47.13
-48.31
-37.36
-16.04
10.00
33.13
46.79
48.07
38.42
22.44
5.66
-7.39
-13.88
-12.46
-2.70
14.86
37.65
60.29
75.46
76.71
61.86
34.68
3.55
-21.84
-34.34
-32.44
-20.73
-7.12
1.39
1.78
-4.62
-14.36
-23.75
-29.62
-29.81
-23.27
-9.55
11.16
37.31
64.74
86.00
92.82
80.06
48.25
3.53
-43.92
-82.80
-104.20
-100.71
-72.52
-31.62
5.37
28.57
37.79
38.43
36.24
34.49
33.34
30.23
23.13
12.47
0.80
-9.41
-17.10
-22.81
-27.75
-33.11
-40.70
-50.43
-60.73
-69.43
-75.13
-77.39
-76.16
-71.24
-60.85
-47.06
-32.74
-20.67
-12.68
-9.42
-10.32
-14.07
-19.26
-24.64
-29.49
-31.68
-27.83
-14.80
7.82
36.18
62.80
79.59
82.90
73.27
56.96
42.69
37.42
43.24
56.85
71.81
80.67
79.71
68.40
49.13
25.34
0.13
-24.18
-45.97
-63.96
-77.64
-85.86
-88.21
-84.76
-76.15
-63.96
-50.58
-38.75
-30.63
-26.97
-26.54
-27.16
-26.51
-23.12
-17.25
-10.51
-4.62
-0.42
2.71
6.33
11.62
18.59
26.14
32.30
35.45
35.22
32.74
30.11
29.48
32.28
37.47
43.98
50.34
55.16
57.80
58.51
58.07
57.22
56.07
54.36
51.36
45.55
35.31
19.84
-0.29
-23.13
-45.82
-65.31
-78.76
-84.99
-85.50
-83.72
-82.66
-83.03
-82.61
-77.58
-64.94
-43.79
-16.59
11.70
36.33
55.32
69.58
80.86
89.29
87.72
70.60
40.10
6.21
-20.90
-37.15
-45.29
-51.27
-59.45
-68.99
-73.63
-66.14
-43.53
-9.95
27.11
59.14
79.73
86.68
82.53
73.04
63.90
58.45
57.01
57.95
59.37
60.23
58.53
54.47
49.65
46.02
45.24
47.77
50.64
50.37
43.19
27.54
5.99
-16.08
-33.73
-45.44
-52.90
-58.26
-62.69
-66.03
-66.98
-63.97
-54.18
-38.29
-18.82
1.21
19.38
34.46
46.25
55.32
62.66
68.81
73.40
75.76
75.29
71.71
65.19
56.24
45.70
34.49
23.18
11.57
-0.70
-14.07
-28.90
-45.52
-64.18
-84.68
-106.15
-126.85
-144.58
-156.84
-161.65
-158.17
-147.04
-130.24
-110.37
-90.03
-71.14
-54.80
-41.27
-30.33
-21.64
-15.01
-10.39
-7.64
-6.45
-6.30
-6.62
-6.97
-7.24
-7.54
-8.16
-9.33
-11.20
-13.80
-17.18
-21.55
-27.21
-34.32
-42.54
-50.87
-57.68
-61.04
-59.40
-52.04
-39.38
-22.89
-4.62
13.29
29.13
41.81
50.93
56.58
59.22
59.41
57.62
54.22
49.54
44.07
38.53
33.78
30.52
28.91
28.41
27.99
26.60
23.64
19.14
13.52
7.28
0.62
-6.38
-13.47
-19.79
-23.85
-24.02
-19.10
-9.05
4.93
20.72
35.95
48.81
58.40
64.70
68.25
69.81
69.86
68.66
66.22
62.44
57.35
51.18
44.49
38.01
32.50
28.44
25.78
24.04
22.37
20.01
16.46
11.65
5.83
-0.52
-6.87
-12.59
-16.94
-19.18
-18.71
-15.27
-9.06
-0.71
8.88
18.64
27.54
34.70
39.49
41.75
41.75
40.11
37.62
34.97
32.73
31.33
31.09
32.08
34.03
36.21
37.56
37.09
34.24
29.05
22.10
14.02
5.22
-4.21
-14.23
-24.30
-33.06
-38.58
-39.07
-33.63
-22.84
-8.71
6.04
18.67
27.34
31.45
31.54
28.82
24.75
20.51
16.95
14.57
13.40
13.26
13.93
15.12
16.35
17.03
16.24
13.13
7.23
-1.77
-13.32
-26.12
-38.53
-49.43
-58.24
-65.41
-71.54
-76.76
-81.54
-85.74
-88.48
-88.67
-85.79
-79.63
-71.23
-61.72
-51.95
-44.02
-39.67
-39.32
-42.17
-47.00
-52.02
-56.96
-61.79
-66.22
-71.57
-78.73
-86.98
-94.68
-100.83
-104.92
-109.23
-116.41
-115.82
-101.27
-74.01
-41.23
-10.12
8.98
19.44
24.73
27.26
28.23
29.51
30.43
30.68
30.65
30.84
32.49
35.08
38.09
41.38
43.61
43.51
41.21
37.90
34.87
33.67
34.07
35.43
37.32
38.79
39.15
38.81
38.69
39.29
40.80
42.11
42.28
41.36
39.95
38.95
39.31
41.31
44.29
47.40
49.82
51.62
53.65
56.61
60.36
63.81
65.32
63.35
57.31
47.68
35.91
23.77
12.81
3.90
-2.71
-7.13
-9.72
-11.04
-11.90
-13.33
-16.35
-21.50
-28.52
-36.22
-42.85
-46.60
-46.18
-41.23
-32.33
-20.72
-7.96
4.50
15.52
24.36
30.62
34.16
35.07
33.65
30.41
26.02
21.20
16.57
12.47
8.92
5.78
2.81
-0.15
-3.15
-6.25
-9.61
-13.48
-17.98
-22.90
-27.47
-30.49
-30.65
-27.11
-19.90
-10.03
0.77
10.68
18.27
22.86
24.51
23.76
21.36
18.02
14.26
10.41
6.59
2.77
-1.16
-5.22
-9.30
-13.11
-16.30
-18.62
-20.09
-21.03
-22.03
-23.68
-26.38
-30.17
-34.54
-38.59
-41.21
-41.49
-39.05
-34.26
-28.03
-21.48
-15.52
-10.61
-6.78
-3.88
-1.77
-0.50
-0.20
-0.89
-2.40
-4.35
-6.36
-8.20
-9.89
-11.59
-13.45
-15.52
-17.69
-19.83
-21.93
-24.19
-27.01
-30.78
-35.56
-40.93
-45.86
-49.01
-49.10
-45.38
-37.87
-27.28
-14.91
-2.19
9.58
19.43
26.83
31.63
34.01
34.38
33.20
30.92
27.85
24.14
19.83
14.98
9.78
4.54
-0.41
-4.84
-8.75
-12.31
-15.83
-19.60
-23.84
-28.58
-33.63
-38.56
-42.67
-45.12
-45.07
-42.05
-36.16
-28.09
-18.98
-9.98
-1.93
4.86
10.44
15.00
18.52
20.86
21.84
21.45
19.99
17.99
15.99
14.31
12.89
11.51
10.07
8.86
8.47
9.51
12.31
16.70
22.07
27.51
32.22
35.59
37.21
36.77
34.19
29.77
24.54
20.04
17.71
18.50
22.60
29.36
37.50
45.56
52.34
57.18
59.91
60.13
57.65
52.81
46.52
39.91
34.03
29.57
26.87
25.81
25.06
23.20
19.36
13.57
6.26
-2.19
-11.65
-21.97
-32.96
-45.21
-58.81
-72.72
-85.11
-94.53
-100.85
-105.38
-109.47
-107.74
-96.14
-74.78
-48.10
-21.03
4.25
27.84
50.66
73.47
95.37
112.58
120.45
116.24
100.95
79.58
59.60
45.37
38.86
38.55
39.66
36.74
27.04
11.77
-4.47
-16.31
-20.00
-13.92
0.89
21.45
43.63
65.77
85.14
98.83
103.69
97.07
78.89
51.23
18.14
-16.85
-50.03
-78.13
-98.64
-110.63
-114.92
-112.84
-106.91
-100.10
-96.68
-98.99
-106.70
-117.60
-129.40
-140.96
-151.35
-160.81
-157.60
-136.15
-100.56
-61.43
-27.47
-1.59
14.15
24.54
32.03
36.67
35.89
28.26
16.79
5.22
-2.69
-4.36
2.12
18.53
41.75
63.62
77.65
83.26
84.58
86.71
92.34
102.88
116.91
130.58
138.86
139.31
132.55
120.29
104.10
85.00
64.92
44.41
23.41
0.27
-25.07
-47.49
-61.85
-67.05
-72.16
-80.85
-95.33
-112.76
-132.53
-152.71
-170.33
-183.16
-190.47
-192.32
-187.61
-175.60
-147.09
-102.25
-50.07
-2.86
31.28
50.75
59.63
63.84
66.59
69.19
70.19
69.47
67.53
66.44
67.56
70.76
74.92
77.78
77.32
71.49
60.99
49.36
40.89
38.22
41.63
49.83
60.48
71.10
79.05
82.96
83.06
80.02
74.03
65.30
54.81
43.93
33.43
22.72
8.58
-9.57
-29.46
-47.72
-62.67
-73.19
-77.10
-74.10
-65.73
-54.54
-42.07
-29.21
-16.35
-4.02
6.79
14.51
17.28
14.57
7.53
-0.43
-5.98
-7.51
-5.45
-1.49
2.67
6.28
9.52
12.00
13.13
11.08
4.04
-8.52
-24.99
-42.43
-58.10
-70.12
-80.39
-88.72
-94.72
-98.22
-99.28
-98.05
-94.72
-89.73
-79.22
-64.15
-46.06
-26.22
-4.76
18.76
44.18
70.76
94.81
111.44
115.90
107.36
88.99
66.90
47.67
35.92
33.10
36.08
41.68
46.39
49.02
50.49
52.80
57.41
64.22
71.60
77.26
79.87
79.09
76.21
72.93
70.38
68.68
67.16
65.16
62.40
59.49
57.20
56.35
57.20
59.18
60.80
60.05
54.93
44.12
27.77
7.57
-13.37
-31.49
-44.04
-50.04
-50.41
-47.47
-44.08
-42.54
-44.20
-49.17
-56.61
-65.00
-72.59
-77.79
-79.41
-76.99
-71.08
-63.39
-56.56
-53.66
-57.36
-69.14
-88.74
-113.90
-140.93
-165.36
-182.90
-190.40
-186.47
-171.72
-148.65
-121.00
-92.98
-68.27
-49.27
-36.76
-29.91
-26.82
-25.26
-23.39
-20.24
-15.91
-11.18
-7.12
-4.43
-3.20
-2.91
-2.84
-2.42
-1.58
-0.71
-0.41
-1.21
-3.48
-7.44
-13.06
-20.00
-27.27
-33.04
-34.83
-30.27
-18.00
1.55
26.11
52.36
77.21
98.71
116.31
130.25
140.55
146.46
146.79
141.02
130.19
117.05
105.05
96.68
92.19
89.56
85.70
78.25
66.82
53.06
39.47
27.84
18.35
9.71
0.22
-11.10
-23.95
-37.07
-48.89
-58.27
-64.60
-67.64
-67.15
-62.70
-53.96
-41.05
-24.90
-7.15
10.20
25.33
36.97
44.61
48.37
48.80
46.67
42.75
37.71
32.09
26.23
20.37
14.62
9.18
4.26
0.14
-2.92
-4.84
-5.74
-5.99
-6.10
-6.69
-8.41
-11.84
-17.31
-24.69
-33.20
-41.38
-47.38
-49.43
-46.39
-38.21
-25.89
-11.20
3.82
17.41
28.30
35.83
39.89
40.71
38.77
34.70
29.13
22.63
15.64
8.53
1.59
-4.83
-10.40
-14.86
-18.08
-20.24
-21.88
-23.84
-27.22
-33.14
-42.22
-54.15
-67.26
-78.64
-84.81
-82.80
-71.17
-50.64
-23.95
4.87
31.53
52.48
65.58
70.37
68.12
61.55
54.17
49.58
50.39
57.59
70.22
85.84
101.25
113.42
120.13
120.16
113.30
100.15
81.87
60.02
36.42
12.88
-8.96
-27.90
-43.33
-55.24
-64.05
-70.28
-74.39
-76.62
-77.11
-76.04
-73.72
-70.58
-67.01
-63.24
-59.25
-54.94
-50.35
-45.94
-42.59
-41.30
-42.72
-46.68
-52.22
-58.03
-62.87
-66.14
-67.88
-68.53
-68.61
-68.50
-68.43
-68.65
-69.44
-70.91
-72.65
-73.47
-71.58
-65.28
-53.70
-37.39
-18.21
1.39
19.26
34.20
46.04
55.12
61.74
65.86
67.10
65.26
60.52
53.45
44.58
34.11
21.96
8.07
-7.04
-22.14
-35.64
-46.19
-53.32
-57.63
-60.31
-62.36
-63.89
-63.78
-60.15
-51.02
-35.16
-12.64
15.06
45.40
75.34
101.99
123.25
138.00
146.20
148.53
146.16
140.32
132.10
122.36
111.65
100.35
88.60
76.37
63.54
49.98
35.70
20.85
5.74
-9.30
-24.04
-38.45
-52.68
-67.01
-81.58
-96.04
-109.21
-119.02
-122.85
-118.27
-104.02
-80.60
-50.28
-16.18
18.65
51.97
82.15
107.45
125.67
134.46
132.41
120.21
100.85
78.70
57.81
40.42
26.56
14.76
3.26
-8.91
-21.76
-34.67
-46.93
-58.05
-67.65
-75.54
-81.79
-86.85
-91.30
-95.40
-98.64
-99.58
-96.39
-87.58
-72.73
-52.64
-28.99
-3.77
21.23
44.55
65.03
81.65
93.65
100.59
102.55
100.13
94.27
85.98
76.05
65.01
53.20
40.82
28.23
15.93
4.45
-5.78
-14.67
-22.60
-30.31
-38.67
-48.29
-59.14
-70.52
-81.08
-89.16
-93.02
-91.25
-82.98
-68.09
-47.35
-22.39
4.54
31.00
54.79
74.39
89.01
98.59
103.50
104.39
102.12
97.68
92.02
85.89
79.48
72.44
64.03
53.56
40.79
26.01
9.89
-6.93
-23.97
-40.93
-57.33
-72.17
-83.94
-90.95
-91.87
-86.33
-74.98
-59.26
-40.83
-21.12
-1.04
18.78
37.77
55.07
69.67
80.51
86.81
88.19
84.70
76.69
64.76
49.71
32.59
14.63
-2.92
-18.91
-32.50
-43.24
-51.10
-56.44
-59.80
-61.64
-62.28
-61.82
-60.35
-58.16
-55.96
-54.77
-55.64
-59.12
-64.76
-71.04
-75.65
-76.19
-70.86
-59.04
-41.34
-19.35
4.96
29.85
54.10
76.95
97.94
116.64
132.50
144.96
153.61
158.41
159.95
159.27
157.52
155.72
154.53
154.07
153.99
153.57
151.85
148.28
142.61
135.08
126.45
117.97
110.93
105.99
102.48
98.23
90.76
77.88
58.64
33.72
5.11
-24.46
-52.31
-76.30
-95.16
-107.84
-114.15
-114.90
-111.64
-106.07
-99.23
-90.98
-80.47
-71.28
-66.49
-68.26
-75.92
-86.03
-94.09
-96.74
-93.06
-85.14
-77.27
-72.78
-72.60
-74.67
-75.15
-70.67
-60.48
-46.73
-32.75
-21.88
-15.61
-13.75
-14.97
-17.88
-21.68
-26.71
-33.27
-41.05
-48.80
-54.05
-54.25
-47.99
-35.97
-18.69
0.25
16.76
28.02
33.23
33.75
31.87
29.47
27.19
24.29
19.08
10.39
-1.91
-16.84
-32.51
-46.57
-56.57
-60.40
-56.86
-46.59
-31.97
-16.93
-6.08
-3.15
-9.59
-24.03
-42.76
-61.25
-76.07
-85.56
-89.84
-89.95
-86.65
-79.78
-68.44
-51.95
-30.64
-6.39
18.09
40.22
58.58
73.31
85.68
97.24
108.65
119.34
127.51
131.05
128.55
119.96
106.65
91.09
75.83
62.78
52.70
45.06
38.36
30.68
20.28
6.30
-10.79
-28.99
-45.32
-57.03
-63.03
-64.78
-66.15
-72.03
-86.26
-109.76
-139.78
-170.51
-194.95
-207.08
-203.52
-184.25
-152.48
-113.55
-73.75
-38.85
-12.65
4.13
14.15
22.43
34.11
51.80
74.12
95.87
110.45
113.08
102.93
83.36
59.81
36.98
16.96
-0.57
-16.72
-31.77
-44.74
-54.43
-60.73
-65.08
-69.36
-74.15
-77.95
-77.92
-71.85
-59.99
-45.29
-31.83
-22.44
-17.18
-13.41
-7.61
2.70
17.75
35.86
54.53
71.66
86.00
97.11
105.26
111.27
116.51
122.60
130.41
139.17
146.23
147.91
141.35
126.06
104.36
80.37
58.14
39.92
25.91
15.00
6.16
-0.84
-5.52
-7.57
-7.63
-7.29
-8.46
-12.46
-19.53
-28.91
-39.33
-49.63
-58.96
-66.81
