1496216746.00
64.000000
-0.00
-0.00
-0.00
-0.00
-0.00
-0.00
-0.00
-0.00
-0.00
-0.00
0.00
0.01
0.01
-0.00
-0.03
-0.05
-0.05
0.00
0.13
0.36
0.66
1.01
1.37
1.72
2.06
2.40
2.79
3.24
3.80
4.42
5.06
5.66
6.20
6.68
7.15
7.68
8.31
9.14
10.09
11.04
11.88
12.56
13.14
13.76
14.65
15.96
17.91
20.32
22.90
25.38
27.58
29.57
31.68
34.32
37.81
42.54
48.15
54.10
59.83
64.97
69.58
74.14
79.34
85.71
93.76
103.00
112.62
121.73
129.77
136.75
143.30
150.75
157.77
166.64
177.95
191.79
206.97
220.57
228.25
225.36
208.53
176.87
132.76
80.05
23.07
-34.94
-92.44
-149.16
-205.23
-260.37
-313.74
-363.87
-409.83
-450.91
-486.50
-515.74
-537.23
-549.22
-549.96
-538.37
-514.21
-478.67
-433.88
-382.45
-327.02
-269.84
-212.63
-156.66
-102.95
-52.37
-5.90
35.58
71.43
101.35
125.50
144.38
158.69
169.15
176.37
180.75
182.57
182.07
179.51
175.23
169.65
163.18
156.15
148.81
141.30
133.69
126.02
118.33
110.69
103.15
95.80
88.68
81.83
75.26
68.98
62.97
57.25
51.81
46.67
41.84
37.34
33.17
29.32
25.78
22.52
19.51
16.74
14.21
11.93
9.90
8.15
6.65
5.38
4.28
3.29
2.39
1.56
0.83
0.23
-0.20
-0.48
-0.66
-0.85
-1.14
-1.58
-2.15
-2.75
-3.24
-3.51
-3.56
-3.50
-3.53
-3.83
-4.50
-5.50
-6.61
-7.56
-8.13
-8.28
-8.19
-8.20
-8.65
-9.71
-11.32
-13.14
-14.76
-15.85
-16.32
-16.32
-16.24
-16.48
-17.40
-19.24
-22.04
-25.50
-28.82
-30.78
-30.03
-25.70
-17.90
-7.83
2.55
11.26
17.04
19.80
20.43
20.28
20.51
21.72
23.85
26.50
29.22
31.68
33.71
35.26
36.28
36.70
36.51
35.72
34.46
32.95
31.45
30.23
29.46
29.16
29.11
29.00
28.49
27.27
25.29
22.69
19.75
16.70
13.75
10.67
7.27
3.42
-0.85
-5.32
-9.70
-13.62
-16.84
-19.18
-20.65
-21.30
-21.28
-20.79
-20.01
-19.16
-18.42
-17.98
-17.88
-17.99
-17.93
-17.16
-15.19
-11.83
-7.33
-2.43
1.98
5.08
6.43
6.14
4.68
2.66
0.56
-1.41
-3.25
-5.06
-6.76
-8.14
-8.91
-8.83
-8.02
-6.79
-5.61
-4.86
-4.68
-4.94
-5.37
-5.74
-5.94
-6.04
-6.24
-6.74
-7.68
-9.02
-10.60
-12.16
-13.47
-14.40
-14.97
-15.29
-15.58
-16.06
-16.92
-18.30
-20.13
-22.23
-24.16
-25.27
-24.78
-22.06
-16.86
-9.46
-0.68
8.41
16.73
23.52
28.43
31.47
32.86
32.83
31.60
29.33
26.20
22.52
18.68
15.11
12.17
10.06
8.75
8.06
7.68
7.38
6.96
6.36
5.62
4.81
3.94
2.95
1.62
-0.27
-2.86
-5.99
-9.28
-12.19
-14.35
-15.71
-16.65
-17.76
-19.56
-22.26
-25.65
-29.16
-32.09
-33.70
-33.40
-30.76
-25.68
-18.41
-9.62
-0.31
8.43
15.77
21.29
25.12
27.72
29.61
31.11
32.19
32.56
31.96
30.34
27.99
25.39
23.06
21.26
19.93
18.86
17.79
16.62
15.37
14.16
12.98
11.71
10.09
7.92
5.11
1.83
-1.64
-4.95
-7.88
-10.40
-12.65
-14.84
-17.14
-19.71
-22.60
-25.85
-29.36
-32.79
-35.55
-36.78
-35.70
-31.83
-25.31
-16.86
-7.54
1.63
9.89
16.85
22.39
26.52
29.25
30.61
30.72
29.82
28.25
26.37
24.49
22.84
21.47
20.36
19.40
18.45
17.39
16.15
14.82
13.48
12.27
11.22
10.25
9.17
7.80
6.00
3.76
1.15
-1.68
-4.55
-7.27
-9.73
-11.93
-13.98
-16.15
-18.74
-21.95
-25.77
-29.91
-33.76
-36.51
-37.36
-35.66
-31.16
-24.08
-15.17
-5.51
3.71
11.49
17.31
21.13
23.26
24.18
24.28
23.77
22.76
21.31
19.55
17.66
15.82
14.13
12.61
11.21
9.91
8.74
7.80
7.19
6.90
6.79
6.65
6.25
5.45
4.25
2.71
0.91
-1.11
-3.34
-5.75
-8.25
-10.66
-12.79
-14.55
-15.94
-17.08
-18.14
-19.33
-20.82
-22.71
-25.05
-27.66
-30.19
-32.01
-32.41
-30.72
-26.58
-20.10
-11.92
-2.99
5.63
13.11
18.96
23.03
25.43
26.33
25.90
24.35
21.99
19.30
16.76
14.80
13.58
12.94
12.52
11.93
10.91
9.44
7.73
6.07
4.70
3.74
3.06
2.46
1.63
0.35
-1.44
-3.63
-5.93
-8.04
-9.69
-10.83
-11.59
-12.27
-13.22
-14.72
-16.86
-19.60
-22.71
-25.88
-28.71
-30.72
-31.40
-30.26
-26.99
-21.62
-14.62
-6.79
0.94
7.79
13.35
17.57
20.66
22.83
24.16
24.64
24.24
23.04
21.29
19.31
17.41
15.77
14.43
13.34
12.47
11.81
11.34
10.99
10.55
9.81
8.65
7.10
5.33
3.63
2.19
1.12
0.34
-0.30
-0.98
-1.82
-2.86
-4.04
-5.27
-6.47
-7.55
-8.53
-9.54
-10.77
-12.45
-14.77
-17.71
-21.03
-24.19
-26.43
-26.97
-25.25
-21.08
-14.83
-7.25
0.66
7.99
14.10
18.70
21.83
23.69
24.56
24.73
24.42
23.81
23.05
22.25
21.47
20.75
20.05
19.31
18.46
17.48
16.39
15.24
14.09
12.93
11.63
10.01
7.94
5.39
2.54
-0.34
-2.96
-5.15
-6.97
-8.62
-10.38
-12.43
-14.83
-17.42
-19.99
-22.29
-24.19
-25.64
-26.74
-27.68
-28.75
-30.24
-32.37
-35.16
-38.25
-40.95
-42.39
-41.74
-38.56
-32.94
-25.48
-17.06
-8.58
-0.75
6.01
11.49
15.62
18.39
19.84
20.08
19.32
17.86
16.02
14.17
12.59
11.49
10.88
10.65
10.56
10.41
10.05
9.47
8.72
7.88
7.01
6.11
5.14
4.11
3.05
1.98
0.92
-0.16
-1.38
-2.78
-4.42
-6.25
-8.23
-10.27
-12.29
-14.16
-15.76
-17.01
-17.90
-18.58
-19.29
-20.28
-21.73
-23.60
-25.66
-27.46
-28.42
-28.02
-25.86
-21.80
-16.00
-8.94
-1.29
6.18
12.81
18.13
21.90
24.10
24.85
24.32
22.72
20.35
17.53
14.67
12.19
10.41
9.43
9.16
9.31
9.60
9.81
9.82
9.64
9.29
8.79
8.10
7.17
5.95
4.44
2.68
0.75
-1.24
-3.17
-4.96
-6.60
-8.10
-9.53
-10.93
-12.30
-13.70
-15.21
-17.01
-19.24
-21.82
-24.38
-26.25
-26.64
-24.99
-21.18
-15.55
-8.84
-1.89
4.56
10.03
14.28
17.29
19.15
19.99
19.98
19.28
18.04
16.41
14.58
12.75
11.12
9.87
9.06
8.62
8.42
8.28
8.09
7.79
7.41
6.98
6.50
5.91
5.09
3.90
2.27
0.19
-2.25
-4.86
-7.39
-9.64
-11.45
-12.77
-13.73
-14.55
-15.48
-16.76
-18.51
-20.75
-23.35
-26.07
-28.51
-30.16
-30.43
-28.82
-25.06
-19.26
-11.96
-3.96
3.87
10.82
16.47
20.68
23.50
25.05
25.53
25.11
24.05
22.58
20.94
19.29
17.75
16.36
15.17
14.22
13.52
13.05
12.78
12.65
12.59
12.56
12.42
11.93
10.85
8.99
6.40
3.37
0.31
-2.40
-4.58
-6.32
-7.92
-9.69
-11.83
-14.29
-16.85
-19.24
-21.23
-22.82
-24.21
-25.72
-27.63
-29.90
-32.13
-33.53
-33.19
-30.44
-25.10
-17.65
-9.00
-0.26
7.64
14.15
19.09
22.57
24.78
25.88
25.95
25.08
23.39
21.15
18.69
16.37
14.46
13.08
12.22
11.79
11.69
11.87
12.23
12.67
13.04
13.13
12.79
11.93
10.61
9.00
7.33
5.78
4.39
3.04
1.51
-0.41
-2.77
-5.44
-8.09
-10.37
-12.03
-13.07
-13.75
-14.47
-15.62
-17.36
-19.57
-21.78
-23.35
-23.59
-22.01
-18.39
-12.88
-5.95
1.67
9.16
15.74
20.78
23.92
25.11
24.57
22.70
19.92
16.65
13.18
9.75
6.58
3.87
1.80
0.50
-0.04
-0.01
0.23
0.26
-0.24
-1.41
-3.04
-4.82
-6.36
-7.51
-8.39
-9.30
-10.59
-12.41
-14.61
-16.84
-18.69
-19.91
-20.46
-20.57
-20.54
-20.71
-21.33
-22.56
-24.43
-26.81
-29.37
-31.54
-32.53
-31.53
-28.01
-21.93
-13.86
-4.81
4.00
11.59
17.45
21.55
24.25
25.94
26.91
27.19
26.70
25.38
23.39
21.02
18.67
16.67
15.14
14.02
13.17
12.44
11.78
11.17
10.68
10.34
10.14
10.02
9.88
9.55
8.92
7.92
6.57
5.01
3.40
1.88
0.48
-0.85
-2.15
-3.42
-4.61
-5.71
-6.81
-8.05
-9.48
-10.94
-11.92
-11.74
-9.72
-5.48
0.91
8.95
17.82
26.65
34.70
41.45
46.66
50.35
52.69
53.91
54.28
54.07
53.52
52.81
52.11
51.52
51.09
50.78
50.51
50.19
49.76
49.17
48.43
47.49
46.24
44.48
41.96
38.49
34.10
29.02
23.72
18.74
14.45
10.96
8.11
5.54
2.90
-0.01
-3.22
-6.58
-9.95
-13.22
-16.46
-19.78
-23.33
-27.19
-31.26
-35.28
-38.86
-41.50
-42.72
-42.07
-39.38
-34.78
-28.77
-22.16
-15.84
-10.61
-6.94
-4.91
-4.28
-4.69
-5.70
-6.88
-7.84
-8.22
-7.77
-6.46
-4.53
-2.37
-0.38
1.17
2.29
3.16
3.99
4.85
5.59
5.89
5.42
4.07
1.94
-0.66
-3.37
-5.90
-8.05
-9.73
-10.83
-11.31
-11.23
-10.92
-10.91
-11.86
-14.32
-18.45
-24.00
-30.30
-36.54
-41.81
-45.30
-46.34
-44.53
-39.83
-32.73
-24.20
-15.51
-7.89
-2.16
1.42
3.14
3.60
3.35
2.75
1.94
0.91
-0.34
-1.76
-3.21
-4.52
-5.52
-6.12
-6.29
-6.06
-5.48
-4.60
-3.46
-2.14
-0.75
0.49
1.26
1.22
0.11
-2.07
-5.07
-8.36
-11.38
-13.74
-15.35
-16.38
-17.14
-17.91
-18.84
-20.00
-21.40
-23.08
-24.98
-26.86
-28.20
-28.29
-26.44
-22.34
-16.22
-8.82
-1.16
5.83
11.51
15.62
18.20
19.41
19.43
18.45
16.62
14.07
10.93
7.29
3.27
-0.95
-5.16
-9.05
-12.41
-15.13
-17.24
-18.85
-20.13
-21.27
-22.40
-23.67
-25.20
-27.03
-29.09
-31.20
-33.14
-34.67
-35.63
-36.00
-35.92
-35.67
-35.66
-36.19
-37.35
-38.78
-39.80
-39.45
-36.87
-31.66
-24.11
-15.23
-6.33
1.49
7.53
11.55
13.72
14.40
13.97
12.68
10.62
7.80
4.33
0.45
-3.69
-7.80
-11.42
-14.12
-15.66
-16.06
-15.35
-13.45
-10.17
-6.18
-2.15
1.50
4.67
7.38
9.56
11.21
12.50
13.66
13.21
10.11
4.35
-2.86
-10.20
-16.91
-22.82
-27.99
-32.53
-39.04
-48.98
-61.73
-74.65
-85.02
-91.63
-94.94
-96.41
-97.71
-103.55
-116.62
-136.53
-160.04
-183.72
-205.94
-226.83
-247.33
-246.30
-212.83
-151.27
-79.14
-12.89
39.95
79.02
106.89
126.50
140.36
145.26
141.48
130.75
116.71
102.89
91.22
82.16
75.46
70.68
64.76
56.53
45.95
34.83
25.16
17.87
12.74
8.96
5.61
0.36
-7.74
-18.01
-27.88
-34.28
-35.12
-29.64
-18.48
-3.18
13.39
28.77
41.34
50.76
57.46
61.88
64.26
64.61
62.88
58.94
53.14
46.20
39.21
33.06
28.16
24.35
21.24
18.46
15.85
13.53
11.58
10.09
9.00
8.17
7.40
6.48
5.22
3.50
1.30
-1.24
-3.89
-6.37
-8.50
-10.30
-11.97
-13.86
-16.35
-19.75
-24.13
-29.20
-34.22
-37.97
-39.00
-35.99
-28.25
-15.99
-0.39
16.77
33.61
48.66
61.14
70.83
77.86
82.40
84.59
84.58
82.71
79.62
76.16
73.18
71.32
70.83
71.47
72.78
74.15
75.10
75.35
74.82
73.52
71.53
68.81
65.28
60.76
55.15
48.50
41.11
33.50
26.35
20.28
15.66
12.50
10.49
9.06
7.55
5.27
1.69
-3.37
-9.61
-16.15
-21.65
-24.60
-23.82
-18.74
-9.65
2.37
15.84
29.22
41.24
51.10
58.40
63.07
65.24
65.16
63.14
59.63
55.19
50.46
46.08
42.48
39.78
37.77
36.05
34.27
32.36
30.49
28.97
27.97
27.38
26.77
25.50
23.02
19.11
13.97
8.21
2.55
-2.40
-6.49
-10.05
-13.81
-18.53
-24.79
-32.85
-42.60
-53.43
-64.35
-74.24
-82.03
-86.84
-88.09
-85.69
-80.14
-72.50
-63.84
-55.11
-46.96
-39.79
-33.86
-29.04
-25.17
-22.12
-19.97
-18.46
-17.13
-15.58
-13.60
-11.25
-8.05
-3.72
1.48
6.27
10.14
13.03
15.14
16.43
16.72
17.12
18.46
20.69
21.69
21.06
19.38
17.72
16.61
16.16
18.28
24.11
33.10
41.28
47.49
52.59
58.73
67.73
80.85
101.32
130.61
167.08
203.73
236.44
263.00
282.65
294.43
280.39
231.65
153.88
81.67
25.11
-14.79
-43.91
-64.60
-79.40
-91.07
-99.32
-103.90
-105.85
-110.05
-117.75
-128.07
-139.00
-149.33
-158.29
-163.29
-162.53
-156.28
-148.77
-142.07
-136.85
-132.74
-129.50
-126.73
-122.39
-114.72
-103.08
-89.51
-75.10
-60.55
-46.41
-33.54
-22.68
-13.46
-5.27
2.24
8.29
12.63
15.28
16.52
16.50
15.51
14.14
12.94
12.18
11.58
10.98
10.27
9.43
8.37
7.12
5.72
4.25
2.73
1.15
-0.62
-2.68
-5.08
-7.82
-10.83
-14.10
-17.66
-21.58
-25.71
-29.60
-32.40
-33.11
-30.97
-25.81
-18.22
-9.40
-0.69
6.81
12.54
16.52
19.04
20.50
21.22
21.39
21.13
20.51
19.54
18.22
16.49
14.37
11.96
9.49
7.21
5.29
3.75
2.38
0.87
-1.05
-3.52
-6.50
-9.81
-13.20
-16.49
-19.53
-22.26
-24.71
-27.04
-29.53
-32.45
-35.86
-39.42
-42.24
-43.11
-40.90
-35.03
-25.79
-14.24
-1.92
9.69
19.55
27.23
32.76
36.46
38.74
39.99
40.60
41.00
41.58
42.65
44.28
46.28
48.18
49.36
49.31
47.77
44.88
41.10
37.04
33.20
29.85
26.92
24.10
21.02
17.44
13.34
8.98
4.75
1.02
-1.91
-3.92
-5.08
-5.54
-5.51
-5.25
-4.98
-4.87
-5.01
-5.34
-5.72
-5.98
-6.12
-6.34
-7.11
-9.03
-12.62
-18.12
-25.28
-33.26
-40.74
-46.28
-48.74
-47.67
-43.47
-37.23
-30.34
-23.99
-18.89
-15.30
-13.18
-12.40
-12.84
-14.31
-16.49
-18.92
-21.10
-22.66
-23.47
-23.61
-23.25
-22.60
-21.81
-20.93
-20.01
-19.04
-18.07
-17.28
-16.98
-17.55
-19.36
-22.48
-26.69
-31.46
-36.14
-40.21
-43.28
-45.22
-45.98
-45.61
-44.15
-41.67
-38.22
-33.85
-28.63
-22.72
-16.48
-10.44
-5.23
-1.37
0.99
2.19
3.01
4.39
7.13
11.64
17.80
25.09
32.79
40.14
46.42
51.13
53.90
54.64
53.46
50.73
46.95
42.67
38.31
34.12
30.18
26.52
23.18
20.34
18.21
17.00
16.76
17.39
18.60
20.05
21.42
22.50
23.22
23.53
23.36
22.57
20.96
18.44
15.08
11.14
6.93
2.69
-1.54
-5.89
-10.46
-15.11
-19.36
-22.57
-24.16
-23.95
-22.26
-19.74
-17.02
-14.44
-11.93
-9.21
-6.08
-2.57
1.05
4.48
7.66
10.78
14.21
18.17
22.51
26.69
29.87
31.35
30.78
28.37
24.85
21.16
18.20
16.50
16.11
16.72
17.81
18.91
19.71
20.16
20.29
20.21
19.95
19.45
18.63
17.37
15.64
13.48
10.94
8.06
4.86
1.32
-2.55
-6.76
-11.20
-15.84
-20.66
-25.69
-30.91
-36.15
-40.97
-44.65
-46.26
-45.02
-40.50
-32.85
-22.79
-11.46
-0.17
9.91
17.96
23.55
26.68
27.65
26.97
25.21
22.92
20.57
18.52
17.06
16.29
16.11
16.27
16.37
16.12
15.45
14.62
14.10
14.31
15.35
16.79
17.86
17.75
16.03
13.00
9.53
6.77
5.62
6.28
8.26
10.48
11.85
11.69
10.00
7.52
5.48
5.31
8.33
15.48
27.14
42.97
61.84
81.96
101.26
118.03
131.42
141.55
149.18
155.12
159.60
162.17
161.98
158.31
150.98
140.46
127.55
112.92
96.86
79.17
59.50
37.67
13.92
-11.01
-35.96
-59.61
-80.76
-98.69
-113.24
-124.75
-133.75
-140.66
-145.66
-148.72
-149.88
-149.45
-148.03
-146.48
-145.52
-145.52
-146.22
-146.73
-145.70
-141.72
-133.87
-122.02
-107.11
-90.78
-74.90
-60.90
-49.49
-40.59
-33.73
-28.42
-24.41
-21.67
-20.22
-19.90
-20.36
-21.11
-21.75
-21.96
-21.67
-20.94
-19.99
-19.04
-18.36
-18.08
-18.24
-18.68
-19.17
-19.52
-19.70
-19.87
-20.33
-21.40
-23.27
-25.93
-29.15
-32.54
-35.69
-38.30
-40.29
-41.89
-43.51
-45.71
-48.87
-53.17
-58.38
-63.86
-68.59
-71.39
-71.10
-66.97
-58.98
-47.90
-35.17
-22.46
-11.20
-2.20
4.44
9.17
12.60
15.24
17.30
18.78
19.62
19.85
19.67
19.44
19.50
20.10
21.35
23.24
25.69
28.56
31.64
34.58
36.92
38.21
38.12
36.65
34.09
30.98
27.89
25.16
22.88
20.77
18.36
15.16
10.80
5.19
-1.55
-9.13
-17.25
-25.80
-34.80
-44.46
-54.96
-66.33
-78.25
-89.96
-100.30
-107.83
-111.19
-109.52
-102.72
-91.60
-77.61
-62.48
-47.73
-34.38
-22.85
-13.13
-4.98
1.90
7.78
12.92
17.62
22.26
27.20
32.68
38.79
45.41
52.29
59.12
65.59
71.48
76.67
81.13
84.95
88.21
90.93
92.94
93.85
93.10
90.13
84.58
76.42
66.00
53.92
40.87
27.45
14.05
0.87
-12.12
-25.06
-38.26
-52.03
-66.68
-82.37
-98.90
-115.46
-130.65
-142.60
-149.41
-149.73
-143.16
-130.41
-113.09
-93.18
-72.55
-52.51
-33.79
-16.74
-1.54
11.63
22.55
31.09
37.36
41.73
44.72
46.87
48.53
49.84
50.74
51.11
50.92
50.26
49.24
47.95
46.38
44.40
41.90
38.86
35.43
31.84
28.39
25.27
22.53
20.11
17.83
15.55
13.12
10.49
7.72
5.01
2.70
1.19
0.78
1.48
2.87
4.19
4.56
3.47
1.08
-1.72
-3.59
-3.25
0.02
6.09
14.07
22.66
30.60
36.98
41.42
43.91
44.66
43.91
41.88
38.76
34.85
30.57
26.49
23.16
21.02
20.24
20.64
21.85
23.43
25.06
26.75
28.58
30.50
32.23
33.27
33.28
32.11
29.85
26.79
23.48
20.33
17.50
14.83
11.98
8.82
5.37
1.84
-1.36
-3.48
-3.91
-2.51
0.24
3.32
5.93
7.50
7.87
7.58
8.68
13.32
22.84
37.27
55.08
75.06
95.63
114.86
130.96
144.22
154.93
162.57
165.95
163.22
155.52
145.01
133.70
123.32
117.62
118.67
125.73
135.56
142.88
146.90
148.38
148.53
148.90
154.30
167.91
189.36
214.91
237.55
255.88
270.13
280.95
265.59
212.74
128.66
34.41
-35.76
-83.86
-115.90
-136.90
-152.94
-165.55
-171.67
-169.36
-159.95
-147.84
-140.84
-139.48
-142.79
-149.02
-155.73
-158.26
-153.66
-142.33
-127.70
-116.76
-110.19
-108.03
-109.71
-114.03
-118.42
-121.14
-122.22
-116.57
-115.49
-117.89
-122.98
-129.79
-137.20
-143.50
-147.40
-148.43
-146.89
-144.84
-141.09
-135.44
-127.99
-119.06
-108.99
-98.32
-87.75
-77.94
-70.35
-64.01
-58.56
-53.60
-48.81
-44.09
-39.57
-35.59
-32.51
-31.08
-30.66
-30.88
-31.16
-31.02
-30.25
-29.12
-28.19
-28.14
-29.74
-32.83
-37.00
-41.35
-44.63
-45.53
-43.08
-36.94
-27.52
-15.98
-3.57
8.43
19.15
28.17
35.47
41.24
45.68
48.93
51.06
52.11
52.14
51.28
49.76
47.86
45.85
43.92
42.12
40.34
38.47
36.41
34.16
31.72
29.08
26.18
22.97
19.49
15.97
12.72
10.07
8.27
7.37
7.26
7.77
8.70
9.88
11.19
12.49
13.62
14.41
14.68
14.28
13.09
11.05
8.25
5.02
1.99
0.03
0.06
2.74
8.14
15.70
24.37
32.93
40.45
46.54
51.35
55.45
59.47
63.87
68.73
73.75
78.34
81.76
83.39
82.89
80.33
76.09
70.82
65.09
59.34
53.73
48.29
42.97
37.76
32.75
28.04
23.70
19.70
15.91
12.16
8.34
4.49
0.77
-2.59
-5.42
-7.71
-9.61
-11.30
-12.99
-14.74
-16.47
-18.15
-19.82
-21.64
-23.80
-26.27
-28.72
-30.44
-30.62
-28.56
-23.99
-17.27
-9.31
-1.35
5.33
9.68
11.10
9.43
4.89
-2.01
-10.57
-20.00
-29.51
-38.42
-46.20
-52.52
-57.23
-60.33
-61.89
-62.07
-61.06
-59.12
-56.50
-53.46
-50.12
-46.49
-42.48
-37.99
-33.09
-28.00
-23.14
-19.01
-16.03
-14.44
-14.22
-15.07
-16.51
-18.05
-19.36
-20.43
-21.55
-23.23
-25.87
-29.54
-33.82
-37.81
-40.41
-40.62
-37.88
-32.22
-24.20
-14.77
-4.98
4.25
12.31
18.92
24.04
27.74
30.08
31.09
30.87
29.61
27.70
25.63
23.82
22.53
21.83
21.61
21.73
22.05
22.45
22.78
22.86
22.56
21.80
20.63
19.14
17.45
15.59
13.52
11.11
8.30
5.05
1.43
-2.42
-6.35
-10.23
-13.97
-17.56
-21.12
-24.82
-28.87
-33.43
-38.48
-43.67
-48.32
-51.47
-52.12
-49.44
-43.12
-33.47
-21.45
-8.42
4.23
15.38
24.46
31.45
36.69
40.62
43.57
45.69
46.97
47.36
46.97
46.02
44.79
43.52
42.27
40.98
39.53
37.85
35.97
34.00
32.04
30.10
28.12
26.02
23.77
21.52
19.49
17.86
16.68
15.81
14.97
13.94
12.67
11.35
10.44
10.48
11.87
14.66
18.35
22.00
24.43
24.73
22.75
19.38
16.43
16.13
20.29
29.64
43.46
59.78
75.95
89.41
98.30
101.81
100.17
94.39
85.90
76.12
66.21
56.81
48.07
39.84
31.84
23.93
16.26
9.17
3.07
-1.69
-4.95
-6.73
-7.29
-7.07
-6.71
-6.85
-7.95
-10.12
-12.98
-15.93
-18.42
-20.24
-21.77
-23.69
-26.73
-31.28
-37.16
-43.71
-50.08
-55.49
-59.52
-62.13
-63.60
-64.39
-64.99
-65.67
-66.51
-67.19
-67.04
-65.17
-60.76
-53.33
-43.00
-30.57
-17.33
-4.69
6.10
14.32
19.77
22.71
23.68
23.31
22.20
20.82
19.48
18.31
17.25
16.12
14.71
12.83
10.40
7.44
4.13
0.73
-2.47
-5.17
-7.22
-8.54
-9.23
-9.45
-9.34
-9.05
-8.66
-8.26
-8.00
-8.10
-8.78
-10.19
-12.36
-15.19
-18.46
-21.91
-25.32
-28.53
-31.49
-34.28
-37.09
-40.18
-43.67
-47.41
-50.79
-52.88
-52.62
-49.21
-42.50
-33.07
-22.14
-11.15
-1.30
6.71
12.79
17.20
20.37
22.51
23.67
23.78
22.88
21.24
19.30
17.48
16.07
15.10
14.41
13.81
13.23
12.70
12.29
11.99
11.72
11.29
10.56
9.47
8.02
6.27
4.23
1.89
-0.78
-3.75
-6.85
-9.88
-12.60
-14.92
-16.92
-18.83
-20.97
-23.57
-26.72
-30.28
-33.87
-36.89
-38.60
-38.23
-35.27
-29.59
-21.63
-12.32
-2.87
5.59
12.30
17.03
20.01
21.73
22.63
23.01
22.91
22.24
20.92
19.06
17.00
15.22
14.12
13.83
14.16
14.69
15.01
14.89
14.40
13.78
13.26
12.94
12.75
12.49
11.93
11.01
9.77
8.40
7.15
6.20
5.67
5.54
5.72
6.11
6.59
7.03
7.25
7.00
6.05
4.40
2.40
0.78
0.45
2.09
5.92
11.48
17.77
23.57
27.73
29.43
28.22
23.96
16.79
6.99
-4.95
-18.33
-32.34
-46.19
-59.18
-70.87
-81.06
-89.72
-96.78
-102.11
-105.50
-106.77
-105.97
-103.51
-100.03
-96.20
-92.49
-89.07
-85.81
-82.55
-79.25
-76.06
-73.30
-71.24
-69.96
-69.36
-69.17
-69.23
-69.45
-69.99
-71.11
-73.09
-76.13
-80.14
-84.73
-89.14
-92.36
-93.30
-91.14
-85.47
-76.49
-64.97
-52.03
-38.90
-26.65
-16.01
-7.40
-0.88
3.77
7.01
9.48
11.95
15.11
19.46
25.20
32.19
40.04
48.21
56.12
63.29
69.41
74.34
78.08
80.73
82.31
82.81
82.20
80.46
77.62
73.84
69.34
64.33
58.99
53.47
47.88
42.31
36.82
31.44
26.17
21.00
15.91
10.89
5.79
0.37
-5.68
-12.52
-19.96
-27.29
-33.33
-36.71
-36.23
-31.35
-22.39
-10.49
2.73
15.69
27.22
36.77
44.24
49.79
53.58
55.77
56.55
56.29
55.50
54.70
54.24
54.18
54.35
54.49
54.39
54.01
53.45
52.80
52.15
51.53
50.90
50.22
49.37
48.19
46.48
44.08
40.98
37.35
33.48
29.72
26.34
23.39
20.74
18.17
15.40
12.20
8.41
3.88
-1.44
-7.42
-13.58
-19.08
-22.78
-23.62
-20.89
-14.59
-5.41
5.49
16.84
27.58
37.00
44.68
50.39
53.99
55.43
54.81
52.41
48.67
44.13
39.31
34.69
30.68
27.53
25.30
23.83
22.79
21.78
20.55
19.10
17.59
16.22
15.01
13.73
12.03
9.61
6.43
2.76
-1.02
-4.58
-7.81
-10.85
-13.97
-17.41
-21.35
-25.89
-31.05
-36.73
-42.53
-47.60
-50.75
-50.72
-46.70
-38.66
-27.47
-14.64
-1.78
9.77
19.27
26.52
31.59
34.66
35.86
35.33
33.36
30.42
27.08
23.91
21.24
19.15
17.53
16.15
14.85
13.61
12.47
11.54
10.81
10.16
9.35
8.08
6.08
3.15
-0.71
-5.33
-10.33
-15.24
-19.65
-23.37
-26.49
-29.38
-32.54
-36.38
-41.07
-46.28
-51.16
-54.49
-54.98
-51.67
-44.38
-33.69
-20.89
-7.54
4.97
15.68
24.15
30.34
34.41
36.61
37.22
36.57
35.07
33.20
31.36
29.86
28.80
28.07
27.43
26.62
25.45
23.92
22.23
20.68
19.48
18.63
17.80
16.48
14.14
10.51
5.68
0.08
-5.65
-10.95
-15.47
-19.17
-22.29
-25.22
-28.46
-32.47
-37.52
-43.52
-49.84
-55.34
-58.59
-58.30
-53.79
-45.27
-33.80
-20.97
-8.36
2.85
12.13
19.45
25.04
29.13
31.79
33.04
32.95
31.76
29.84
27.65
25.60
23.95
22.76
21.93
21.21
20.32
19.08
17.47
15.66
13.90
12.38
11.11
9.91
8.46
6.53
4.08
1.28
-1.60
-4.35
-6.94
-9.50
-12.17
-15.05
-18.09
-21.21
-24.39
-27.73
-31.41
-35.45
-39.50
-42.72
-43.94
-41.98
-36.10
-26.37
-13.62
0.78
15.28
28.59
39.88
48.75
55.18
59.36
61.53
61.94
60.87
58.60
55.48
51.86
48.08
44.40
40.95
37.69
34.47
31.09
27.38
23.24
18.68
13.74
8.45
2.84
-3.07
-9.19
-15.39
-21.46
-27.23
-32.60
-37.61
-42.35
-46.89
-51.23
-55.25
-58.78
-61.73
-64.17
-66.37
-68.75
-71.69
-75.29
-79.23
-82.68
-84.48
-83.49
-78.91
-70.64
-59.33
-46.15
-32.42
-19.30
-7.53
2.49
10.62
16.75
20.82
22.87
23.14
22.18
20.65
19.24
18.38
18.19
18.55
19.17
19.78
20.25
20.54
20.72
20.82
20.81
20.58
19.97
18.79
16.96
14.55
11.79
9.01
6.54
4.55
3.03
1.79
0.54
-1.01
-3.00
-5.43
-8.12
-10.75
-13.04
-14.85
-16.27
-17.61
-19.35
-21.92
-25.58
-30.15
-35.03
-39.17
-41.32
-40.32
-35.53
-27.11
-16.01
-3.77
7.95
17.84
25.22
29.97
32.43
33.09
32.40
30.77
28.55
26.07
23.62
21.41
19.59
18.19
17.16
16.45
15.96
15.60
15.27
14.93
14.56
14.19
13.77
13.18
12.24
10.79
8.76
6.31
3.74
1.36
-0.65
-2.38
-4.11
-6.23
-8.96
-12.31
-15.95
-19.47
-22.44
-24.63
-26.13
-27.31
-28.74
-30.97
-34.33
-38.76
-43.68
-48.14
-50.96
-51.08
-47.87
-41.31
-32.00
-21.01
-9.57
1.20
10.52
17.93
23.30
26.75
28.48
28.80
28.01
26.44
24.35
22.01
19.63
17.45
15.69
14.51
14.02
14.17
14.80
15.66
16.49
17.03
17.08
16.45
15.07
12.94
10.25
7.26
4.32
1.70
-0.53
-2.46
-4.37
-6.58
-9.23
-12.29
-15.49
-18.49
-21.00
-22.95
-24.46
-25.80
-27.32
-29.32
-31.90
-35.00
-38.23
-40.99
-42.48
-41.92
-38.73
-32.76
-24.40
-14.46
-4.00
5.94
14.55
21.32
26.04
28.69
29.41
28.41
26.07
22.85
19.42
16.41
14.37
13.55
13.84
14.85
15.98
16.71
16.74
16.04
14.84
13.37
11.75
9.89
7.59
4.63
0.97
-3.23
-7.62
-11.78
-15.37
-18.17
-20.23
-21.77
-23.20
-25.01
-27.63
-31.26
-35.76
-40.51
-44.57
-46.84
-46.35
-42.56
-35.51
-25.88
-14.78
-3.48
6.84
15.39
21.82
26.22
28.93
30.34
30.71
30.14
28.66
26.36
23.56
20.73
18.43
17.01
16.50
16.58
16.78
16.63
15.97
14.87
13.50
12.02
10.41
8.50
6.08
3.02
-0.65
-4.72
-8.86
-12.76
-16.18
-19.09
-21.60
-24.04
-26.72
-29.95
-33.85
-38.33
-42.96
-46.97
-49.36
-49.12
-45.56
-38.53
-28.58
-16.85
-4.72
6.57
16.19
23.77
29.36
33.16
35.40
36.20
35.73
34.20
31.94
29.42
27.10
25.36
24.35
23.99
24.06
24.24
24.27
23.96
23.23
22.03
20.37
18.26
15.76
12.94
9.85
6.53
2.97
-0.86
-4.93
-9.16
-13.34
-17.22
-20.51
-23.07
-24.97
-26.52
-28.19
-30.47
-33.62
-37.55
-41.68
-45.08
-46.63
-45.36
-40.72
-32.74
-22.13
-10.03
2.23
13.44
22.76
29.78
34.47
37.05
37.84
37.21
35.56
33.25
30.69
28.25
26.23
24.80
24.02
23.77
23.87
24.06
24.10
23.85
23.19
22.08
20.52
18.47
15.96
12.97
9.54
5.68
1.49
-2.91
-7.29
-11.38
-14.89
-17.72
-19.99
-22.04
-24.35
-27.31
-31.05
-35.29
-39.33
-42.14
-42.66
-40.05
-34.01
-24.85
-13.51
-1.30
10.44
20.61
28.64
34.40
38.11
40.12
40.69
39.98
38.13
35.34
31.97
28.46
25.24
22.62
20.71
19.41
18.55
17.92
17.32
16.60
15.63
14.32
12.60
10.49
8.03
5.32
2.45
-0.48
-3.39
-6.26
-9.13
-12.15
-15.41
-18.94
-22.60
-26.11
-29.19
-31.66
-33.59
-35.31
-37.36
-40.22
-44.11
-48.74
-53.25
-56.35
-56.71
-53.37
-46.12
-35.58
-22.98
-9.81
2.57
13.20
21.56
27.50
31.18
32.91
33.07
32.06
30.26
28.04
25.77
23.85
22.55
21.96
21.87
21.90
21.60
20.77
19.49
18.10
16.94
16.14
15.45
14.45
12.73
10.12
6.82
3.28
-0.06
-2.93
-5.39
-7.71
-10.25
-13.23
-16.66
-20.28
-23.67
-26.42
-28.23
-29.06
-29.15
-28.98
-29.15
-30.26
-32.64
-36.16
-40.16
-43.41
-44.47
-42.04
-35.47
-24.92
-11.46
3.33
17.77
30.57
40.94
48.66
53.81
56.64
57.44
56.50
54.10
50.55
46.20
41.43
36.68
32.40
28.90
26.32
24.56
23.35
22.35
21.32
20.10
18.61
16.80
14.57
11.84
8.62
5.06
1.32
-2.45
-6.35
-10.59
-15.42
-20.84
-26.51
-31.86
-36.34
-39.72
-42.19
-44.27
-46.59
-49.51
-53.05
-56.77
-59.85
-61.28
-59.97
-55.12
-46.35
-34.10
-19.51
-4.23
10.05
22.16
31.60
38.45
43.03
45.54
46.02
44.44
40.94
35.96
30.14
24.10
18.18
12.44
6.78
1.16
-4.28
-9.29
-13.65
-17.35
-20.62
-23.78
-27.02
-30.28
-33.23
-35.51
-36.96
-37.65
-37.91
-38.11
-38.52
-39.19
-39.98
-40.70
-41.17
-41.31
-41.16
-40.92
-40.94
-41.64
-43.49
-46.80
-51.47
-56.85
-61.82
-64.98
-65.05
-61.29
-53.76
-43.34
-31.43
-19.54
-8.92
-0.26
6.23
10.67
13.35
14.53
14.48
13.50
11.97
10.35
9.04
8.36
8.46
9.30
10.73
12.64
14.94
17.69
20.92
24.58
28.42
32.00
34.82
36.54
37.14
36.91
36.36
35.95
35.90
36.21
36.67
37.06
37.34
37.59
38.02
38.81
39.95
41.21
42.11
42.01
40.27
36.53
30.89
24.01
17.09
11.62
8.99
10.16
15.30
23.78
34.28
45.09
54.52
61.20
64.36
63.92
60.39
54.71
47.96
41.14
35.03
30.10
26.58
24.50
23.68
23.83
24.53
25.35
25.91
25.96
25.43
24.39
22.99
21.30
19.27
16.69
13.33
8.99
3.62
-2.57
-9.22
-15.85
-22.00
-27.33
-31.66
-34.95
-37.32
-38.96
-40.08
-40.83
-41.05
-40.20
-37.31
-31.22
-21.00
-6.35
12.09
32.79
53.67
72.63
88.00
98.83
104.86
106.28
103.49
97.07
87.70
76.36
64.23
52.65
42.76
35.22
29.93
26.15
22.74
18.68
13.45
7.19
0.51
-5.90
-11.69
-16.95
-22.08
-27.52
-33.53
-40.06
-46.89
-53.76
-60.48
-66.92
-72.92
-78.29
-82.79
-86.28
-88.75
-90.45
-91.83
-93.49
-96.00
-99.63
-104.02
-108.06
-110.03
-108.10
-101.01
-88.62
-72.09
-53.52
-35.30
-19.36
-6.75
2.47
8.93
13.52
17.00
19.76
21.85
23.12
23.46
22.91
21.74
20.43
19.44
19.15
19.70
21.03
22.95
25.18
27.40
29.26
30.43
30.63
29.71
27.82
25.28
22.61
20.21
18.26
16.63
14.96
12.82
9.91
6.18
1.81
-2.88
-7.58
-12.21
-16.89
-21.96
-27.67
-33.85
-39.79
-44.17
-45.47
-42.54
-35.07
-23.89
-10.65
2.60
14.15
22.97
28.83
32.03
33.13
32.65
30.95
28.26
24.71
20.46
15.65
10.45
4.96
-0.73
-6.52
-12.22
-17.51
-21.95
-25.10
-26.68
-26.73
-25.64
-24.02
-22.54
-21.65
-21.58
-22.28
-23.63
-25.50
-27.76
-30.30
-32.97
-35.62
-38.19
-40.77
-43.65
-47.23
-51.81
-57.36
-63.40
-68.95
-72.69
-73.27
-69.73
-61.83
-50.21
-36.21
-21.52
-7.74
4.06
13.41
20.35
25.16
28.09
29.28
28.86
27.08
24.41
21.51
19.10
17.69
17.43
18.09
19.22
20.28
20.88
20.88
20.35
19.54
18.74
18.13
17.71
17.26
16.40
14.67
11.83
7.90
3.25
-1.51
-5.81
-9.32
-12.10
-14.53
-17.17
-20.52
-24.81
-29.88
-35.10
-39.48
-41.81
-41.02
-36.43
-28.06
-16.63
-3.41
10.13
22.66
33.31
41.76
48.10
52.70
55.95
58.19
59.63
60.44
60.74
60.63
60.24
59.68
59.10
58.60
58.28
58.17
58.22
58.26
57.97
56.96
54.79
51.16
45.92
39.14
31.02
21.81
11.76
1.04
-10.16
-21.66
-33.25
-44.77
-56.12
-67.24
-78.12
-88.74
-99.05
-108.94
-118.22
-126.52
-133.16
-137.17
-137.38
-132.80
-123.02
-108.46
-90.48
-70.94
-51.80
-34.59
-20.09
-8.37
0.98
8.56
14.81
19.94
23.95
26.77
28.40
29.02
28.96
28.60
28.31
28.33
28.73
29.42
30.26
31.06
31.63
31.81
31.48
30.54
29.04
27.08
24.83
22.46
19.99
17.29
14.09
10.19
5.60
0.65
-4.16
-8.39
-11.87
-14.84
-17.78
-21.19
-25.37
-30.28
-35.56
-40.58
-44.48
-46.29
-45.06
-40.12
-31.35
-19.36
-5.44
8.80
21.80
32.49
40.45
45.83
49.06
50.63
50.93
50.21
48.63
46.39
43.73
40.95
38.42
36.39
34.99
34.19
33.79
33.53
33.14
32.45
31.37
29.89
28.06
25.93
23.57
21.00
18.26
15.33
12.25
9.02
5.68
2.30
-1.03
-4.29
-7.48
-10.69
-14.06
-17.77
-21.96
-26.58
-31.32
-35.48
-38.03
-37.88
-34.18
-26.72
-16.04
-3.27
10.14
22.87
33.97
42.99
49.85
54.77
58.10
60.25
61.64
62.62
63.44
64.20
64.86
65.33
65.58
65.67
65.78
66.15
66.94
68.23
69.90
71.71
73.33
74.44
74.75
74.11
72.49
70.02
67.02
63.83
60.74
57.78
54.72
51.13
46.52
40.58
33.29
24.91
15.83
6.39
-3.27
-13.22
-23.64
-34.61
-45.90
-56.95
-66.79
-74.22
-78.07
-77.55
-72.49
-63.42
-51.52
-38.30
-25.24
-13.51
-3.86
3.44
8.44
11.43
12.83
13.10
12.67
11.88
11.01
10.20
9.60
9.36
9.68
10.69
12.45
14.88
17.83
21.05
24.16
26.81
28.68
29.60
29.57
28.81
27.64
26.44
25.44
24.53
23.48
21.97
19.78
16.93
13.61
10.07
6.51
2.96
-1.02
-5.84
-11.75
-18.57
-25.75
-32.45
-37.65
-40.33
-39.76
-36.21
-30.45
-23.55
-16.65
-10.86
-7.15
-6.20
-8.26
-13.18
-21.33
-32.68
-46.69
-62.34
-78.60
-94.61
-109.61
-122.76
-133.20
-141.19
-146.94
-150.37
-151.10
-148.83
-143.64
-136.01
-126.57
-110.00
-84.63
-53.03
-20.88
6.85
28.17
43.45
53.99
61.02
65.41
66.76
64.94
60.53
54.78
49.11
44.70
42.40
42.81
46.02
50.76
55.44
58.77
60.17
59.68
57.67
54.68
51.25
47.69
43.64
38.87
33.58
28.42
24.17
21.16
19.05
17.71
16.75
15.57
13.78
11.41
8.93
7.07
6.27
6.96
9.40
13.46
18.65
24.19
29.26
33.29
36.43
39.21
43.06
49.80
60.69
75.76
93.60
111.76
127.68
139.70
146.87
149.53
148.84
145.86
141.17
134.51
124.83
110.14
92.40
72.27
50.42
27.80
5.69
-14.25
-30.51
-42.29
-50.08
-55.66
-62.23
-72.53
-87.64
-106.35
-125.46
-141.08
-150.20
-151.97
-147.80
-140.98
-134.71
-130.89
-129.81
-130.58
-132.19
-134.18
-136.78
-140.37
-145.08
-150.07
-153.75
-154.43
-151.07
-143.70
-133.27
-120.99
-107.74
-93.82
-78.88
-62.38
-44.16
-24.76
-5.50
11.97
26.13
36.10
41.79
43.90
43.63
42.33
41.11
40.67
41.17
42.37
43.66
44.30
43.60
41.11
36.66
30.43
22.86
14.63
6.59
-0.37
-5.43
-8.04
-8.13
-6.22
-3.22
-0.32
1.45
1.42
-0.56
-4.19
-8.89
-14.11
-19.55
-25.21
-31.22
-37.70
-44.32
-50.11
-53.44
-52.51
-46.06
-34.09
-18.09
-0.66
15.40
27.93
36.09
40.24
41.45
40.58
37.64
32.03
23.10
10.64
-4.69
-21.51
-38.08
-52.90
-65.25
-75.58
-84.80
-93.89
-103.60
-114.38
-126.23
-138.53
-149.74
-157.47
-159.28
-152.63
-135.92
-109.57
-76.53
-41.55
-9.65
15.61
32.98
42.85
47.28
48.98
50.09
51.48
53.11
54.74
56.47
62.88
74.77
89.05
100.93
106.96
106.16
99.71
90.14
80.35
72.28
65.70
59.01
50.41
38.91
24.88
10.02
-3.30
-13.08
-18.78
-21.27
-22.06
-22.61
-23.75
-25.79
-28.55
-31.55
-34.29
-36.50
-38.30
-40.09
-42.31
-45.31
-49.22
-53.73
-57.90
-59.97
-59.46
-55.08
-45.80
-31.48
-13.04
7.51
27.77
45.58
59.56
69.18
74.83
77.09
76.48
73.55
68.82
62.97
56.85
51.29
46.94
44.22
42.98
42.73
42.88
43.09
43.28
43.63
44.23
44.94
45.45
45.32
44.22
42.06
39.02
35.33
31.17
26.64
21.84
17.05
12.66
9.02
6.35
4.45
2.78
0.54
-3.05
-8.39
-15.09
-21.80
-26.33
-26.12
-19.00
-4.00
18.30
45.80
75.53
104.39
129.87
150.43
165.49
175.23
180.31
181.60
180.08
176.72
172.43
167.97
163.82
160.07
156.38
152.13
146.60
139.35
130.43
120.34
109.88
99.73
90.33
81.72
73.72
66.16
58.94
52.13
45.84
40.09
34.74
29.45
23.81
17.47
10.18
1.86
-7.42
-17.64
-28.79
-40.94
-54.10
-68.03
-82.07
-95.06
-105.51
-111.95
-113.38
-109.62
-101.46
-90.46
-78.51
-67.30
-57.93
-50.70
-45.32
-41.33
-38.38
-36.39
-35.44
-35.48
-36.16
-36.91
-37.17
-36.67
-35.57
-34.32
-33.37
-32.94
-32.93
-33.02
-32.87
-32.35
-31.65
-31.19
-31.45
-32.80
-35.31
-38.74
-42.62
-46.41
-49.66
-52.15
-53.94
-55.32
-56.68
-58.40
-60.74
-63.87
-67.75
-72.06
-76.17
-79.16
-79.99
-77.81
-72.24
-63.50
-52.41
-40.13
-27.86
-16.61
-7.01
0.76
6.83
11.55
15.27
18.25
20.63
22.42
23.59
24.27
24.69
25.08
25.66
26.40
27.17
27.79
28.14
28.18
27.94
27.47
26.74
25.77
24.60
23.33
22.07
20.93
19.95
19.30
19.15
19.82
21.62
24.71
28.96
33.84
38.46
41.78
42.74
40.74
35.77
28.48
20.01
11.53
3.81
-3.00
-9.36
-16.13
-24.09
-33.79
-45.37
-58.61
-73.16
-88.66
-104.90
-121.69
-138.73
-155.44
-170.88
-183.98
-193.68
-199.34
-200.92
-198.93
-194.08
-187.00
-177.92
-166.65
-152.91
-136.39
-116.99
-94.99
-71.22
-46.90
-23.46
-2.29
15.41
28.65
36.98
40.59
40.28
37.01
31.52
23.91
13.60
-0.57
-20.05
-45.11
-73.90
-102.37
-125.08
-136.56
-132.58
-111.36
-74.12
-25.96
26.58
77.23
120.85
153.45
172.57
177.49
169.43
151.17
124.60
93.20
62.24
36.94
19.99
10.83
6.53
3.19
-2.56
-15.63
-36.95
-62.21
-84.49
-98.44
-102.27
-97.43
-87.62
-77.52
-75.60
-86.64
-109.04
-136.84
-164.01
-186.35
-201.17
-207.10
-178.04
-107.99
-16.66
66.87
126.71
162.34
180.14
186.95
187.74
185.40
177.27
162.44
144.09
127.50
115.94
109.50
106.46
104.72
102.72
96.63
85.16
70.78
57.65
48.31
42.83
39.93
38.06
36.14
31.82
24.46
15.77
8.50
4.32
3.23
4.31
6.48
9.08
10.80
11.21
10.91
11.02
12.11
14.10
16.50
18.69
19.84
18.89
14.91
7.67
-2.29
-13.93
-26.05
-37.62
-47.99
-56.86
-63.65
-67.75
-68.47
-65.17
-57.92
-47.80
-36.82
-27.23
-20.91
-18.32
-19.19
-22.63
-27.31
-32.09
-36.07
-38.65
-39.09
-39.54
-40.21
-40.78
-40.52
-38.34
-33.53
-26.17
-17.18
-7.88
0.52
7.70
13.62
18.45
23.24
28.59
34.14
38.70
41.06
40.59
37.80
33.62
29.10
27.04
29.25
35.57
43.86
51.36
56.01
57.09
54.83
50.24
47.95
52.16
64.68
84.44
108.92
135.57
162.40
187.82
210.63
234.19
261.46
292.81
325.64
356.48
382.95
404.33
421.06
408.74
354.82
264.83
160.31
63.51
-13.94
-70.74
-110.46
-137.51
-155.55
-163.64
-161.37
-151.10
-138.04
-127.53
-122.85
-124.14
-129.30
-135.05
-136.98
-132.54
-122.61
-110.98
-101.86
-98.11
-99.67
-104.30
-109.23
-110.97
-107.83
-100.81
-93.06
-88.10
-88.91
-96.18
-108.71
-122.01
-131.42
-132.86
-123.76
-103.72
-70.84
-30.44
6.80
30.52
36.53
27.50
10.34
-7.70
-21.78
-30.28
-34.58
-36.30
-35.96
-33.06
-27.52
-20.12
-12.51
-6.67
-4.17
-6.05
-11.61
-18.75
-24.88
-28.42
-29.39
-28.42
-26.81
-25.85
-26.58
-28.89
-31.76
-33.74
-33.97
-32.50
-30.02
-27.63
-26.31
-26.77
-29.11
-32.93
-37.39
-41.51
-44.32
-44.80
-42.10
-35.79
-25.93
-12.95
1.42
15.39
27.47
36.78
43.11
46.69
47.94
47.22
44.77
40.90
36.21
31.51
27.56
24.85
23.34
22.61
22.09
21.35
20.29
19.14
18.26
17.80
17.66
17.48
16.88
15.63
13.66
10.98
7.70
3.87
-0.47
-5.21
-10.09
-14.78
-18.93
-22.39
-25.25
-27.84
-30.61
-33.94
-38.02
-42.65
-47.28
-51.05
-52.95
-52.04
-47.69
-39.78
-28.83
-15.92
-2.45
10.23
21.03
29.36
35.02
38.09
38.83
37.58
34.76
30.90
26.59
22.34
18.52
15.27
12.54
10.21
8.21
6.53
5.32
4.79
5.14
6.50
8.84
11.97
15.55
19.22
22.67
25.69
28.16
30.01
31.09
31.18
30.01
27.43
23.48
18.46
12.90
7.35
2.22
-2.39
-6.75
-11.30
-16.47
-22.25
-28.12
-33.08
-35.94
-35.72
-32.01
-25.13
-16.06
-6.07
3.58
12.01
18.79
23.95
27.75
30.49
32.35
33.32
33.30
32.22
30.17
27.43
24.38
21.38
18.61
16.07
13.67
11.33
9.03
6.80
4.70
2.72
0.81
-1.11
-3.07
-5.12
-7.26
-9.53
-11.97
-14.65
-17.62
-20.88
-24.44
-28.23
-32.13
-36.02
-39.68
-42.95
-45.77
-48.17
-50.22
-51.95
-53.19
-53.52
-52.28
-48.66
-41.93
-31.73
-18.21
-2.13
15.26
32.44
47.99
60.85
70.47
76.78
80.07
80.78
79.40
76.39
72.25
67.50
62.68
58.32
54.77
52.17
50.41
49.20
48.17
47.06
45.77
44.38
42.99
41.72
40.50
39.14
37.38
34.99
31.90
28.16
23.95
19.47
14.88
10.25
5.62
0.95
-3.83
-8.92
-14.57
-21.01
-28.20
-35.66
-42.43
-47.19
-48.69
-46.20
-39.80
-30.40
-19.42
-8.37
1.57
9.68
15.70
19.68
21.81
22.39
21.76
20.29
18.39
16.40
14.58
13.11
12.10
11.62
11.66
12.12
12.91
13.95
15.22
16.71
18.34
19.78
20.57
20.19
18.32
15.01
10.67
5.94
1.41
-2.58
-6.07
-9.32
-12.68
-16.41
-20.61
-25.25
-30.23
-35.29
-39.98
-43.56
-45.10
-43.74
-39.00
-31.07
-20.85
-9.67
1.06
10.26
17.44
22.58
25.96
27.92
28.69
28.40
27.16
25.17
22.74
20.25
18.07
16.43
15.38
14.85
14.69
14.74
14.92
15.14
15.32
15.36
15.10
14.41
13.14
11.27
8.81
5.83
2.49
-1.03
-4.50
-7.72
-10.58
-13.07
-15.31
-17.51
-19.87
-22.53
-25.50
-28.55
-31.22
-32.82
-32.60
-29.97
-24.79
-17.51
-9.10
-0.75
6.46
11.94
15.63
17.89
19.18
19.86
20.10
19.89
19.19
18.05
16.55
14.87
13.14
11.45
9.82
8.27
6.75
5.28
3.85
2.48
1.20
0.01
-1.08
-2.13
-3.16
-4.26
-5.50
-7.02
-8.88
-11.11
-13.65
-16.33
-18.97
-21.41
-23.64
-25.72
-27.75
-29.85
-32.12
-34.58
-37.17
-39.57
-41.19
-41.22
-38.84
-33.59
-25.58
-15.58
-4.79
5.55
14.47
21.41
26.21
28.93
29.78
29.06
27.20
24.68
21.98
19.43
17.25
15.50
14.18
13.23
12.56
12.03
11.45
10.68
9.65
8.45
7.18
5.94
4.68
3.27
1.54
-0.64
-3.23
-6.08
-8.98
-11.69
-14.09
-16.15
-17.92
-19.53
-21.16
-22.96
-25.06
-27.48
-30.09
-32.49
-34.07
-34.11
-31.92
-27.14
-19.88
-10.77
-0.85
8.73
16.92
23.00
26.70
28.13
27.73
26.06
23.72
21.22
18.96
17.19
16.00
15.34
15.03
14.82
14.43
13.70
12.59
11.20
9.72
8.30
6.98
5.71
4.41
3.02
1.54
-0.01
-1.62
-3.33
-5.25
-7.46
-10.01
-12.82
-15.76
-18.59
-21.09
-23.11
-24.62
-25.77
-26.87
-28.31
-30.44
-33.38
-36.86
-40.20
-42.41
-42.45
-39.56
-33.58
-25.00
-14.86
-4.44
5.14
13.10
19.18
23.48
26.33
28.12
29.17
29.72
29.91
29.81
29.40
28.62
27.40
25.78
23.89
21.95
20.21
18.85
17.90
17.24
16.67
15.98
15.01
13.76
12.27
10.66
9.02
7.37
5.71
3.99
2.16
0.19
-1.94
-4.22
-6.62
-9.11
-11.65
-14.19
-16.61
-18.78
-20.55
-21.86
-22.80
-23.62
-24.59
-25.91
-27.48
-28.90
-29.50
-28.50
-25.24
-19.38
-10.98
-0.57
10.94
22.47
32.81
41.04
46.78
50.24
52.09
52.93
53.23
53.29
53.25
53.09
52.89
52.98
53.82
55.91
59.29
63.76
69.02
74.80
80.66
86.40
92.12
98.04
104.36
110.52
115.70
119.13
120.21
117.65
110.77
99.97
86.60
72.84
59.35
46.25
33.60
21.44
8.12
-7.05
-22.95
-37.09
-45.87
-49.32
-48.90
-46.29
-43.29
-44.37
-52.50
-67.78
-87.74
-107.32
-126.07
-144.75
-163.72
-183.49
-208.21
-240.59
-279.84
-321.91
-359.28
-390.40
-415.69
-435.90
-424.73
-368.39
-273.81
-164.94
-83.13
-27.44
8.96
31.01
47.65
61.61
70.00
70.79
65.18
57.46
54.88
58.20
65.96
76.60
88.01
95.73
96.87
91.57
82.71
75.94
72.23
71.04
71.79
73.33
73.02
69.14
61.88
53.06
46.10
41.33
38.06
35.63
33.23
29.67
24.40
17.78
10.87
5.34
1.30
-1.66
-3.93
-6.04
-8.64
-12.24
-16.98
-22.61
-28.35
-33.67
-37.87
-40.12
-39.67
-36.00
-29.13
-19.69
-8.80
2.23
12.24
20.51
26.82
31.36
34.46
36.43
37.40
37.46
36.72
35.39
33.80
32.31
31.14
30.33
29.77
29.25
28.57
27.67
26.58
25.44
24.36
23.36
22.35
21.14
19.55
17.46
14.89
11.99
9.01
6.18
3.66
1.44
-0.61
-2.68
-4.97
-7.58
-10.51
-13.65
-16.81
-19.78
-22.38
-24.57
-26.43
-28.21
-30.27
-33.03
-36.72
-41.24
-46.05
-50.15
-52.35
-51.60
-47.35
-39.73
-29.55
-18.05
-6.54
3.89
12.59
19.29
24.03
26.99
28.42
28.55
27.65
26.01
23.94
21.81
19.93
18.52
17.65
17.24
17.10
17.01
16.83
16.57
16.32
16.17
16.10
15.95
15.46
14.39
12.68
10.50
8.16
5.99
4.13
2.42
0.51
-1.98
-5.20
-9.04
-13.12
-16.98
-20.35
-23.22
-25.85
-28.61
-31.88
-35.81
-40.31
-44.91
-48.84
-51.15
-50.92
-47.53
-40.83
-31.32
-20.01
-8.15
3.03
12.63
20.16
25.56
29.08
31.15
32.29
33.00
33.65
34.42
35.23
35.80
35.77
34.85
32.94
30.15
26.79
23.19
19.66
16.41
13.54
11.06
8.90
6.94
5.08
3.25
1.50
-0.08
-1.41
-2.52
-3.59
-4.90
-6.74
-9.26
-12.38
-15.86
-19.30
-22.37
-24.86
-26.80
-28.42
-30.08
-32.15
-34.88
-38.25
-41.94
-45.26
-47.31
-47.15
-44.12
-38.07
-29.45
-19.22
-8.53
1.62
10.58
18.11
24.24
28.98
32.37
34.33
34.91
34.32
32.95
31.27
29.67
28.41
27.54
27.00
26.71
26.56
26.50
26.36
25.96
25.04
23.50
21.36
18.84
16.23
13.76
11.45
9.16
6.68
3.90
0.90
-2.15
-5.06
-7.77
-10.30
-12.73
-15.11
-17.46
-19.84
-22.36
-25.18
-28.26
-31.19
-33.17
-33.18
-30.36
-24.38
-15.71
-5.47
4.85
13.92
20.85
25.45
28.02
29.17
29.42
29.06
28.16
26.67
24.65
22.36
20.19
18.58
17.79
17.79
18.33
19.03
19.56
19.68
19.30
18.47
17.31
15.96
14.53
13.10
11.65
10.11
8.35
6.28
3.87
1.17
-1.71
-4.66
-7.59
-10.47
-13.30
-16.14
-19.05
-22.05
-25.10
-27.92
-30.01
-30.72
-29.41
-25.72
-19.71
-11.95
-3.31
5.20
12.80
19.00
23.71
27.03
29.16
30.23
30.32
29.49
27.90
25.83
23.68
21.82
20.50
19.76
19.48
19.44
19.48
19.53
19.58
19.61
19.49
19.00
17.91
16.09
13.55
10.48
7.16
3.88
0.87
-1.77
-4.07
-6.17
-8.24
-10.40
-12.74
-15.30
-18.12
-21.31
-24.89
-28.75
-32.47
-35.27
-36.22
-34.48
-29.70
-22.19
-12.88
-3.01
6.25
14.13
20.31
24.80
27.81
29.50
30.05
29.67
28.63
27.24
25.76
24.32
22.93
21.55
20.23
19.10
18.33
18.00
18.03
18.15
18.06
17.49
16.34
14.61
12.43
9.92
7.21
4.39
1.55
-1.26
-4.06
-6.88
-9.77
-12.70
-15.54
-18.12
-20.33
-22.18
-23.83
-25.56
-27.63
-30.16
-33.03
-35.84
-37.93
-38.56
-37.07
-33.16
-26.97
-19.10
-10.46
-2.02
5.51
11.73
16.63
20.33
22.95
24.50
24.86
24.01
22.11
19.57
16.98
14.89
13.64
13.29
13.60
14.24
14.91
15.42
15.72
15.86
15.86
15.74
15.42
14.79
13.71
12.14
10.02
7.42
4.46
1.31
-1.86
-4.87
-7.60
-10.01
-12.15
-14.20
-16.37
-18.84
-21.70
-24.83
-27.88
-30.31
-31.47
-30.75
-27.74
-22.41
-15.18
-6.83
1.65
9.34
15.60
20.16
23.11
24.72
25.32
25.19
24.50
23.39
22.01
20.54
19.16
17.97
16.98
16.12
15.30
14.52
13.83
13.32
12.97
12.64
12.14
11.25
9.94
8.32
6.62
4.99
3.47
1.93
0.22
-1.79
-4.05
-6.44
-8.78
-10.92
-12.81
-14.49
-16.10
-17.79
-19.76
-22.13
-24.87
-27.74
-30.21
-31.59
-31.19
-28.52
-23.50
-16.53
-8.40
-0.12
7.31
13.14
17.03
19.11
19.79
19.64
19.11
18.44
17.62
16.54
15.15
13.56
12.01
10.76
9.93
9.45
9.15
8.80
8.33
7.72
6.98
6.09
4.97
3.55
1.81
-0.13
-2.08
-3.86
-5.38
-6.71
-7.97
-9.29
-10.68
-12.13
-13.55
-14.90
-16.20
-17.53
-18.93
-20.45
-22.07
-23.71
-25.16
-26.01
-25.71
-23.64
-19.37
-12.95
-5.00
3.42
11.16
17.39
21.82
24.68
26.42
27.41
27.78
27.43
26.29
24.45
22.22
20.01
18.18
16.89
16.08
15.54
14.99
14.14
12.82
11.03
8.92
6.80
4.93
3.42
2.17
0.94
-0.52
-2.32
-4.44
-6.74
-9.08
-11.42
-13.82
-16.39
-19.26
-22.50
-26.12
-30.04
-34.07
-37.84
-40.80
-42.29
-41.78
-39.02
-34.20
-27.88
-20.83
-13.79
-7.28
-1.53
3.41
7.56
10.87
13.22
14.49
14.70
14.06
12.94
11.77
10.88
10.41
10.32
10.40
10.41
10.22
9.80
9.30
8.89
8.72
8.80
8.96
8.90
8.28
6.88
4.72
2.02
-0.86
-3.53
-5.80
-7.61
-9.12
-10.61
-12.35
-14.60
-17.50
-20.90
-24.33
-27.04
-28.13
-26.88
-23.02
-16.87
-9.23
-1.16
6.37
12.71
17.57
20.95
22.93
23.63
23.19
21.87
20.05
18.23
16.83
16.07
15.86
15.87
15.71
15.12
14.04
12.64
11.13
9.72
8.52
7.52
6.63
5.75
4.82
3.80
2.73
1.73
0.89
0.26
-0.25
-0.81
-1.65
-2.94
-4.75
-7.03
-9.67
-12.52
-15.32
-17.74
-19.35
-19.77
-18.74
-16.36
-12.98
-9.24
-5.82
-3.33
-2.18
-2.52
-4.33
-7.45
-11.62
-16.59
-22.06
-27.69
-33.13
-37.97
-41.79
-44.28
-45.34
-45.12
-43.99
-42.40
-40.70
-39.01
-37.21
-35.00
-32.16
-28.64
-24.56
-20.15
-15.59
-10.98
-6.32
-1.63
2.95
7.12
10.49
12.76
13.73
13.40
11.88
9.39
6.29
3.07
0.45
-0.78
0.03
3.12
8.17
14.35
20.57
25.85
29.62
31.79
32.66
32.65
32.09
31.11
29.69
27.77
25.37
22.69
20.02
17.70
15.90
14.61
13.64
12.73
11.68
10.45
9.11
7.82
6.69
5.69
4.72
3.59
2.17
0.41
-1.66
-3.96
-6.34
-8.68
-10.84
-12.70
-14.23
-15.48
-16.64
-17.94
-19.64
-21.90
-24.67
-27.61
-30.06
-31.21
-30.30
-26.88
-21.08
-13.55
-5.38
2.29
8.65
13.34
16.53
18.66
20.14
21.20
21.81
21.83
21.14
19.80
18.05
16.26
14.75
13.75
13.24
13.04
12.88
12.48
11.68
10.50
9.07
7.60
6.27
5.14
4.17
3.26
2.26
1.09
-0.31
-1.97
-3.87
-5.96
-8.13
-10.21
-12.04
-13.50
-14.62
-15.63
-16.85
-18.54
-20.71
-23.00
-24.70
-24.95
-23.13
-19.02
-13.02
-5.90
1.37
8.01
13.54
17.85
21.00
23.10
24.24
24.44
23.73
22.23
20.11
17.63
14.95
12.12
9.08
5.67
1.85
-2.19
-6.01
-9.02
-10.71
-10.83
-9.59
-7.53
-5.26
-3.19
-1.36
0.46
2.61
5.25
8.30
11.49
14.53
17.23
19.49
21.22
22.11
21.74
19.65
15.64
9.98
3.42
-2.91
-7.82
-10.31
-9.84
-6.39
-0.45
7.12
15.28
23.01
29.57
34.51
37.81
39.66
40.29
39.85
38.32
35.60
31.56
26.26
19.91
12.95
5.99
-0.36
-5.55
-9.30
-11.65
-12.96
-13.76
-14.50
-15.42
-16.44
-17.25
-17.57
-17.29
-16.60
-15.93
-15.80
-16.61
-18.42
-21.01
-23.91
-26.68
-29.06
-31.09
-33.04
-35.22
-37.80
-40.70
-43.54
-45.78
-46.84
-46.22
-43.55
-38.68
-31.80
-23.41
-14.34
-5.56
2.05
7.95
12.02
14.44
15.56
15.67
14.94
13.48
11.47
9.24
7.24
5.87
5.29
5.38
5.84
6.28
6.44
6.23
5.69
4.95
4.08
3.14
2.12
1.04
-0.14
-1.44
-2.90
-4.56
-6.44
-8.45
-10.47
-12.35
-14.00
-15.46
-16.87
-18.50
-20.54
-23.08
-25.96
-28.75
-30.87
-31.71
-30.79
-27.89
-23.12
-16.93
-9.92
-2.83
3.73
9.27
13.50
16.36
17.90
18.30
17.78
16.56
14.89
13.05
11.32
9.93
9.01
8.53
8.31
8.15
7.92
7.62
7.34
7.14
7.00
6.79
6.34
5.54
4.36
2.81
0.96
-1.16
-3.48
-5.82
-7.93
-9.57
-10.68
-11.45
-12.32
-13.76
-16.06
-19.09
-22.28
-24.78
-25.67
-24.34
-20.65
-14.97
-8.00
-0.57
6.58
12.90
18.03
21.74
23.91
24.52
23.73
21.85
19.33
16.65
14.22
12.27
10.90
10.03
9.53
9.21
8.90
8.47
7.83
6.99
5.96
4.75
3.36
1.77
-0.01
-1.95
-4.02
-6.16
-8.31
-10.42
-12.42
-14.28
-15.99
-17.63
-19.31
-21.23
-23.49
-26.07
-28.74
-31.08
-32.52
-32.44
-30.38
-26.17
-19.97
-12.32
-3.97
4.26
11.64
17.69
22.19
25.20
26.90
27.58
27.55
27.08
26.37
25.52
24.60
23.64
22.71
21.91
21.34
21.22
21.63
22.37
23.01
23.10
22.44
21.14
19.61
18.37
17.97
18.54
19.50
19.85
18.72
15.90
11.80
7.16
2.67
-1.14
-4.37
-7.90
-12.81
-19.51
-27.26
-34.41
-39.02
-39.35
-33.78
-21.56
-3.42
18.45
40.80
59.90
72.09
74.47
63.60
40.05
10.10
-17.16
-35.37
-43.42
-44.06
-40.92
-36.75
-32.61
-27.94
-22.01
-15.12
-8.64
-4.05
-2.19
-2.78
-4.80
-6.81
-7.20
-4.97
-0.55
4.65
8.92
10.91
10.38
7.93
4.84
2.71
2.72
4.58
7.02
8.33
6.61
1.50
-6.75
-17.52
-30.23
-44.20
-58.55
-71.25
-77.76
-75.43
-63.18
-43.07
-20.01
-0.30
12.76
18.16
17.86
15.36
13.08
11.68
10.20
7.70
4.81
3.93
7.38
15.78
26.92
36.06
38.24
31.02
15.99
-2.24
-18.24
-28.51
-32.78
-32.38
-29.37
-25.00
-19.39
-11.92
-2.05
10.11
23.58
36.54
47.50
55.53
60.37
62.12
60.94
56.81
49.66
39.44
26.57
12.21
-2.56
-16.11
-26.86
-33.44
-34.75
-30.01
-19.13
-2.72
15.87
32.20
42.12
43.06
35.18
21.26
5.42
-8.66
-19.11
-26.08
-30.69
-34.04
-36.62
-38.30
-38.97
-38.93
-38.87
-39.54
-41.27
-43.48
-45.01
-44.78
-42.13
-37.13
-30.79
-23.77
-16.94
-11.01
-6.20
-2.43
0.57
3.10
5.35
7.38
9.07
10.13
10.20
9.13
6.99
3.99
0.52
-2.86
-5.52
-6.75
-6.07
-3.30
1.27
6.91
12.44
16.66
18.71
18.20
15.34
10.66
4.92
-1.21
-7.25
-12.98
-18.27
-22.93
-26.71
-29.32
-30.54
-30.28
-28.75
-26.27
-23.16
-20.38
-18.35
-17.11
-16.48
-16.18
-16.03
-16.07
-16.46
-17.44
-19.16
-21.53
-24.36
-27.45
-30.60
-33.66
-36.55
-39.24
-41.79
-44.43
-47.41
-51.05
-55.54
-60.68
-65.70
-69.32
-70.04
-66.52
-58.17
-45.30
-29.19
-11.60
5.66
21.26
34.45
45.06
53.11
58.70
61.92
62.97
62.28
60.52
58.48
56.78
55.71
55.18
54.82
54.28
53.35
52.09
50.72
49.47
48.41
47.44
46.22
44.37
41.49
37.39
32.10
25.95
19.53
13.49
8.29
4.08
0.57
-2.83
-6.86
-12.08
-18.61
-26.04
-33.39
-39.31
-42.35
-41.31
-35.59
-25.38
-11.65
4.07
20.14
35.17
48.23
58.87
66.99
72.68
76.06
77.31
76.62
74.29
70.74
66.49
62.06
57.89
54.20
50.98
48.04
45.12
42.07
38.86
35.58
32.25
28.81
24.97
20.43
14.95
8.60
1.71
-5.14
-11.29
-16.26
-19.85
-22.28
-24.05
-25.92
-28.59
-32.55
-37.84
-43.97
-49.95
-54.47
-56.28
-54.49
-48.82
-39.73
-28.22
-15.56
-3.00
8.51
18.27
25.89
31.13
33.87
34.13
32.08
28.14
22.92
17.16
11.65
7.05
3.74
1.76
0.89
0.76
1.03
1.52
2.16
2.91
3.62
4.00
3.70
2.52
0.47
-2.19
-5.13
-8.08
-10.97
-13.89
-17.03
-20.54
-24.47
-28.83
-33.52
-38.33
-42.79
-46.12
-47.33
-45.48
-40.06
-31.25
-20.02
-7.85
3.72
13.55
21.15
26.57
30.15
32.20
32.82
32.05
30.03
27.15
24.01
21.21
19.11
17.73
16.81
16.02
15.13
14.13
13.13
12.30
11.72
11.35
10.99
10.33
8.99
6.64
3.12
-1.40
-6.40
-11.18
-15.13
-18.02
-20.10
-22.09
-24.80
-28.84
-34.21
-40.28
-45.82
-49.39
-49.73
-46.19
-38.92
-28.86
-17.46
-6.28
3.49
11.25
16.96
21.01
23.80
25.65
26.63
26.72
25.94
24.46
22.57
20.60
18.82
17.32
16.06
14.92
13.81
12.64
11.37
10.00
8.57
7.05
5.43
3.64
1.49
-1.18
-4.47
-8.31
-12.40
-16.33
-19.71
-22.36
-24.41
-26.24
-28.31
-31.05
-34.61
-38.84
-43.29
-47.26
-49.88
-50.28
-47.80
-42.23
-33.92
-23.80
-13.13
-3.13
5.29
11.74
16.25
19.10
20.57
20.81
19.82
17.66
14.47
10.65
6.75
3.36
0.92
-0.33
-0.37
0.65
2.60
5.30
8.56
12.06
15.38
18.07
19.77
20.43
20.26
19.68
19.12
18.86
18.97
19.31
19.64
19.72
19.37
18.46
16.92
14.74
11.96
8.63
4.70
0.07
-5.45
-11.99
-19.51
-27.54
-35.28
-41.61
-45.39
-45.75
-42.39
-35.65
-26.46
-16.07
-5.79
3.32
10.58
15.73
18.86
20.33
20.48
19.63
18.00
15.77
13.17
10.52
8.26
6.85
6.57
7.44
9.19
11.36
13.50
15.26
16.45
17.03
16.95
16.21
14.75
12.65
10.08
7.27
4.42
1.62
-1.20
-4.19
-7.38
-10.68
-13.86
-16.75
-19.34
-21.86
-24.64
-27.85
-31.30
-34.39
-36.23
-35.96
-33.02
-27.40
-19.65
-10.71
-1.65
6.59
13.41
18.51
21.89
23.69
24.11
23.42
21.92
19.97
17.96
16.21
14.89
14.02
13.51
13.26
13.20
13.29
13.50
13.73
13.88
13.80
13.35
12.49
11.24
9.72
8.13
6.74
5.80
5.49
5.81
6.59
7.57
8.50
9.28
9.92
10.52
11.09
11.56
11.72
11.33
10.21
8.36
5.95
3.40
1.30
0.40
1.38
4.71
10.38
17.93
26.50
35.13
43.07
49.96
55.80
60.90
65.60
70.20
74.81
79.46
84.12
88.70
93.07
97.00
100.13
102.11
102.59
101.44
98.74
94.73
89.70
83.84
77.20
69.74
61.44
52.41
42.90
33.23
23.68
14.41
5.42
-3.34
-11.95
-20.44
-28.79
-36.99
-45.06
-53.02
-60.93
-68.77
-76.41
-83.63
-90.08
-95.30
-98.81
-100.20
-99.24
-96.02
-91.02
-85.07
-79.18
-74.23
-70.77
-68.78
-67.80
-67.15
-66.20
-64.66
-62.57
-60.22
-57.94
-55.88
-54.00
-52.08
-49.85
-47.11
-43.72
-39.66
-34.99
-29.82
-24.36
-18.92
-13.94
-9.85
-6.99
-5.48
-5.14
-5.56
-6.30
-6.96
-7.38
-7.62
-7.91
-8.52
-9.63
-11.27
-13.26
-15.34
-17.26
-18.91
-20.33
-21.72
-23.33
-25.40
-28.01
-30.98
-33.85
-35.86
-36.15
-33.98
-29.06
-21.68
-12.68
-3.27
5.39
12.49
17.75
21.33
23.59
24.91
25.51
25.46
24.82
23.66
22.20
20.67
19.32
18.29
17.56
16.98
16.43
15.84
15.22
14.68
14.28
13.99
13.64
13.02
11.96
10.39
8.44
6.34
4.36
2.65
1.19
-0.18
-1.68
-3.45
-5.47
-7.60
-9.63
-11.39
-12.84
-14.07
-15.19
-16.36
-17.63
-19.04
-20.49
-21.78
-22.50
-22.19
-20.35
-16.75
-11.52
-5.20
1.44
7.64
12.91
17.16
20.53
23.26
25.45
26.99
27.66
27.32
26.04
24.10
21.89
19.76
17.89
16.34
15.09
14.16
13.55
13.18
12.86
12.35
11.46
10.13
8.46
6.66
4.80
2.85
0.64
-1.95
-4.84
-7.82
-10.60
-13.02
-15.10
-16.99
-18.88
-20.88
-23.03
-25.39
-28.05
-31.17
-34.74
-38.46
-41.66
-43.40
-42.78
-39.28
-32.92
-24.33
-14.51
-4.56
4.57
12.24
18.15
22.28
24.83
26.11
26.54
26.57
26.57
26.72
27.00
27.16
26.91
26.11
24.78
23.20
21.65
20.28
18.97
17.48
15.50
12.93
9.81
6.32
2.69
-0.96
-4.53
-7.96
-11.18
-14.14
-16.90
-19.62
-22.45
-25.46
-28.51
-31.33
-33.63
-35.27
-36.42
-37.42
-38.72
-40.64
-43.23
-46.18
-48.86
-50.46
-50.10
-47.18
-41.45
-33.27
-23.42
-12.98
-3.01
5.71
12.76
18.05
21.73
23.98
24.96
24.82
23.78
22.17
20.42
18.94
17.99
17.59
17.57
17.68
17.72
17.65
17.56
17.53
17.58
17.56
17.27
16.50
15.17
13.34
11.14
8.74
6.25
3.77
1.29
-1.27
-3.98
-6.87
-9.88
-12.88
-15.72
-18.33
-20.79
-23.29
-25.98
-28.86
-31.57
-33.48
-33.79
-31.85
-27.41
-20.72
-12.50
-3.66
4.94
12.68
19.23
24.45
28.29
30.70
31.67
31.31
29.93
28.02
26.11
24.63
23.78
23.51
23.56
23.61
23.44
22.95
22.17
21.24
20.31
19.47
18.70
17.91
16.92
15.56
13.75
11.49
8.86
5.99
3.02
0.11
-2.63
-5.12
-7.40
-9.63
-12.11
-15.19
-19.03
-23.44
-27.71
-30.77
-31.47
-29.01
-23.16
-14.39
-3.71
7.49
17.67
25.43
29.69
29.99
26.64
20.65
13.47
6.50
0.75
-3.43
-6.17
-7.87
-8.84
-9.23
-9.02
-8.17
-6.77
-5.01
-3.16
-1.47
-0.14
0.73
1.14
1.20
1.04
0.77
0.38
-0.28
-1.46
-3.34
-5.91
-8.86
-11.74
-14.15
-15.93
-17.31
-18.68
-20.46
-22.90
-25.97
-29.41
-32.80
-35.57
-37.05
-36.57
-33.60
-27.96
-20.01
-10.58
-0.80
8.27
15.89
21.82
26.16
29.22
31.27
32.50
33.00
32.82
32.07
30.91
29.58
28.27
27.11
26.11
25.29
24.65
24.23
24.07
24.09
24.05
23.62
22.54
20.70
18.21
15.32
12.30
9.33
6.47
3.67
0.88
-1.91
-4.71
-7.47
-10.11
-12.55
-14.72
-16.63
-18.39
-20.15
-22.08
-24.18
-26.21
-27.65
-27.81
-26.03
-21.88
-15.36
-6.98
2.34
11.52
19.59
25.91
30.25
32.72
33.57
33.07
31.43
28.85
25.63
22.15
18.88
16.24
14.48
13.59
13.33
13.32
13.16
12.57
11.47
9.98
8.27
6.49
4.70
2.83
0.82
-1.35
-3.55
-5.63
-7.44
-9.01
-10.50
-12.15
-14.14
-16.47
-18.97
-21.45
-23.81
-26.11
-28.48
-30.90
-33.06
-34.30
-33.81
-30.97
-25.61
-18.22
-9.79
-1.47
5.77
11.39
15.29
17.64
18.63
18.35
16.77
13.87
9.82
5.09
0.40
-3.45
-5.86
-6.64
-6.05
-4.61
-2.98
-1.68
-0.96
-0.89
-1.38
-2.32
-3.65
-5.39
-7.57
-10.20
-13.20
-16.35
-19.45
-22.29
-24.78
-26.99
-29.04
-31.02
-32.98
-34.94
-36.99
-39.26
-41.90
-44.86
-47.68
-49.50
-49.28
-46.25
-40.16
-31.53
-21.41
-11.11
-1.73
6.03
11.91
16.03
18.64
20.01
20.37
19.89
18.72
17.07
15.18
13.32
11.72
10.51
9.65
9.04
8.52
8.01
7.51
7.07
6.70
6.33
5.79
4.91
3.61
1.95
0.12
-1.69
-3.35
-4.81
-6.11
-7.31
-8.50
-9.71
-10.97
-12.30
-13.78
-15.55
-17.85
-20.92
-24.84
-29.29
-33.45
-36.17
-36.30
-33.17
-26.91
-18.43
-9.15
-0.47
6.55
11.47
14.35
15.52
15.36
14.25
12.46
10.25
7.89
5.64
3.74
2.35
1.53
1.24
1.35
1.63
1.92
2.11
2.17
2.17
2.17
2.19
2.28
2.40
2.56
2.71
2.78
2.69
2.36
1.81
1.14
0.51
0.06
-0.17
-0.24
-0.28
-0.51
-1.10
-2.21
-3.91
-6.10
-8.32
-9.79
-9.49
-6.47
-0.25
8.89
19.91
31.28
41.50
49.49
54.92
58.05
59.50
59.92
59.78
59.34
58.72
58.05
57.48
57.12
57.04
57.16
57.35
57.42
57.22
56.67
55.69
54.26
52.42
50.32
48.21
46.31
44.75
43.36
41.71
39.19
35.28
29.66
22.40
13.86
4.58
-4.92
-14.15
-22.72
-30.30
-36.70
-41.89
-45.96
-49.04
-51.14
-51.93
-50.85
-47.30
-40.97
-32.09
-21.48
-10.32
0.17
9.03
15.74
20.16
22.44
22.88
21.84
19.75
17.06
14.19
11.55
9.44
8.06
7.52
7.90
9.29
11.78
15.34
19.78
24.63
29.18
32.68
34.52
34.42
32.42
28.84
24.12
18.66
12.83
6.97
1.43
-3.51
-7.67
-11.03
-13.79
-16.28
-18.80
-21.65
-25.01
-29.01
-33.77
-39.27
-45.28
-51.20
-56.09
-58.84
-58.51
-54.70
-47.65
-38.29
-27.83
-17.46
-8.01
0.11
6.86
12.29
16.42
19.21
20.59
20.59
19.43
17.45
15.07
12.59
10.21
7.99
5.98
4.21
2.77
1.71
1.04
0.59
0.18
-0.36
-1.08
-1.93
-2.92
-4.12
-5.69
-7.80
-10.47
-13.45
-16.32
-18.67
-20.26
-21.20
-21.80
-22.47
-23.51
-25.06
-27.16
-29.85
-33.18
-37.05
-41.09
-44.51
-46.34
-45.66
-42.01
-35.56
-27.10
-17.68
-8.31
0.31
7.83
14.11
19.08
22.65
24.72
25.33
24.63
22.96
20.74
18.40
16.32
14.72
13.65
12.99
12.52
12.07
11.62
11.29
11.25
11.52
11.89
11.98
11.38
9.93
7.75
5.18
2.57
0.10
-2.31
-4.89
-7.85
-11.25
-14.94
-18.62
-21.97
-24.79
-27.13
-29.27
-31.61
-34.51
-38.07
-41.97
-45.53
-47.88
-48.23
-46.09
-41.38
-34.39
-25.76
-16.25
-6.69
2.16
9.71
15.60
19.73
22.26
23.47
23.74
23.42
22.77
21.99
21.14
20.22
19.16
17.94
16.58
15.22
14.03
13.16
12.65
12.41
12.32
12.19
11.86
11.22
10.16
8.59
6.58
4.33
2.19
0.50
-0.56
-1.09
-1.42
-1.97
-3.05
-4.71
-6.84
-9.25
-11.84
-14.57
-17.54
-20.82
-24.49
-28.59
-33.12
-38.01
-42.96
-47.37
-50.41
-51.17
-49.00
-43.77
-35.92
-26.34
-16.15
-6.37
2.17
8.98
13.88
16.98
18.69
19.58
20.20
20.96
22.00
23.24
24.43
25.37
25.89
25.94
25.46
24.47
23.07
21.48
19.97
18.78
18.01
17.55
17.15
16.55
15.58
14.21
12.47
10.43
8.10
5.41
2.32
-1.14
-4.85
-8.59
-12.06
-15.03
-17.39
-19.23
-20.81
-22.47
-24.61
-27.48
-31.12
-35.22
-39.18
-42.16
-43.26
-41.86
-37.67
-30.91
-22.24
-12.61
-3.08
5.45
12.34
17.26
20.18
21.27
20.78
19.02
16.22
12.69
8.77
4.86
1.35
-1.44
-3.32
-4.28
-4.40
-3.87
-2.96
-2.00
-1.30
-1.12
-1.57
-2.55
-3.86
-5.26
-6.50
-7.45
-8.04
-8.33
-8.47
-8.72
-9.32
-10.47
-12.23
-14.48
-16.99
-19.55
-22.05
-24.50
-27.08
-29.95
-33.06
-36.09
-38.32
-38.84
-36.74
-31.49
-23.19
-12.58
-0.93
10.39
20.24
27.96
33.41
36.84
38.70
39.46
39.52
39.09
38.31
37.21
35.81
34.17
32.44
30.83
29.56
28.77
28.47
28.55
28.79
29.03
29.13
28.95
28.36
27.18
25.26
22.60
19.39
16.00
12.80
9.98
7.49
5.10
2.56
-0.26
-3.28
-6.30
-9.18
-11.91
-14.56
-17.29
-20.23
-23.46
-27.03
-30.90
-34.87
-38.51
-41.08
-41.73
-39.74
-34.77
-27.13
-17.67
-7.54
2.09
10.42
17.07
22.13
25.90
28.71
30.71
31.87
32.13
31.46
30.03
28.15
26.23
24.56
23.36
22.68
22.48
22.68
23.17
23.84
24.50
24.94
24.99
24.50
23.43
21.85
19.82
17.46
14.90
12.30
9.76
7.34
4.96
2.43
-0.47
-3.83
-7.54
-11.28
-14.63
-17.32
-19.28
-20.79
-22.31
-24.36
-27.24
-30.96
-35.10
-38.89
-41.36
-41.53
-38.73
-32.77
-24.07
-13.62
-2.65
7.66
16.44
23.28
28.19
31.38
33.19
33.94
33.82
33.05
31.82
30.37
28.92
27.64
26.56
25.61
24.67
23.70
22.70
21.77
20.98
20.31
19.63
18.70
17.23
15.06
12.15
8.72
5.11
1.70
-1.27
-3.78
-6.08
-8.57
-11.57
-15.20
-19.29
-23.51
-27.50
-31.06
-34.18
-37.00
-39.68
-42.31
-44.78
-46.71
-47.54
-46.62
-43.40
-37.73
-29.94
-20.83
-11.42
-2.63
4.90
10.93
15.49
18.72
20.74
21.66
21.64
20.87
19.65
18.29
17.07
16.21
15.88
16.14
16.96
18.15
19.38
20.24
20.44
19.87
18.66
17.09
15.39
13.61
11.60
9.08
5.84
1.86
-2.61
-7.13
-11.24
-14.63
-17.24
-19.23
-20.92
-22.65
-24.72
-27.35
-30.65
-34.51
-38.54
-41.98
-43.82
-43.03
-38.94
-31.55
-21.60
-10.36
0.80
10.79
19.05
25.52
30.38
33.87
36.08
37.06
36.93
35.93
34.43
32.72
30.95
29.08
27.09
25.01
23.06
21.53
20.60
20.20
19.97
19.41
18.11
15.90
12.92
9.52
6.10
2.95
0.18
-2.26
-4.55
-6.84
-9.28
-11.93
-14.80
-17.84
-21.01
-24.28
-27.62
-31.08
-34.69
-38.48
-42.33
-45.89
-48.51
-49.40
-47.75
-43.05
-35.40
-25.51
-14.59
-4.00
5.15
12.26
17.30
20.64
22.77
24.11
24.84
25.03
24.68
23.86
22.74
21.53
20.43
19.53
18.77
18.06
17.29
16.42
15.53
14.68
13.95
13.27
12.49
11.38
9.73
7.46
4.62
1.40
-1.98
-5.35
-8.60
-11.68
-14.55
-17.21
-19.71
-22.12
-24.58
-27.19
-30.00
-32.91
-35.67
-37.81
-38.78
-37.95
-34.89
-29.45
-21.91
-12.92
-3.35
5.90
14.10
20.77
25.67
28.70
29.90
29.46
27.76
25.33
22.71
20.36
18.55
17.37
16.72
16.48
16.53
16.74
16.96
17.02
16.66
15.66
13.91
11.47
8.55
5.50
2.54
-0.25
-2.98
-5.85
-9.00
-12.39
-15.86
-19.19
-22.28
-25.21
-28.16
-31.33
-34.85
-38.74
-42.81
-46.70
-49.82
-51.37
-50.51
-46.64
-39.73
-30.40
-19.80
-9.20
0.36
8.40
14.90
20.15
24.37
27.62
29.81
30.86
30.86
30.04
28.80
27.42
26.06
24.75
23.43
22.13
20.96
20.11
19.69
19.61
19.58
19.20
18.11
16.17
13.52
10.53
7.56
4.78
2.10
-0.81
-4.25
-8.31
-12.78
-17.17
-20.94
-23.81
-25.85
-27.50
-29.41
-32.13
-35.83
-40.19
-44.41
-47.44
-48.28
-46.28
-41.25
-33.57
-23.99
-13.46
-2.95
6.79
15.23
22.12
27.37
31.05
33.25
34.20
34.14
33.39
32.25
30.99
29.76
28.66
27.74
27.06
26.70
26.67
26.85
27.02
26.89
26.21
24.87
22.88
20.37
17.54
14.58
11.63
8.81
6.11
3.42
0.57
-2.61
-6.14
-9.93
-13.71
-17.24
-20.34
-23.03
-25.52
-28.12
-31.16
-34.84
-39.10
-43.52
-47.30
-49.41
-48.82
-44.91
-37.66
-27.77
-16.44
-5.05
5.26
13.83
20.49
25.36
28.71
30.73
31.53
31.21
29.93
28.00
25.81
23.74
22.10
21.07
20.70
20.88
21.40
21.98
22.33
22.17
21.35
19.82
17.66
15.03
12.08
8.93
5.64
2.26
-1.21
-4.69
-8.09
-11.35
-14.40
-17.26
-20.00
-22.75
-25.67
-28.93
-32.66
-36.89
-41.42
-45.80
-49.29
-50.95
-49.91
-45.64
-38.12
-27.96
-16.28
-4.35
6.73
16.25
23.97
29.97
34.40
37.37
38.91
39.06
38.02
36.14
33.86
31.57
29.53
27.74
26.12
24.53
22.90
21.25
19.64
18.11
16.71
15.34
13.90
12.22
10.22
7.92
5.48
3.11
0.90
-1.20
-3.38
-5.89
-8.85
-12.14
-15.52
-18.71
-21.57
-24.22
-26.96
-30.15
-33.93
-38.17
-42.37
-45.73
-47.38
-46.55
-42.79
-36.13
-27.00
-16.20
-4.66
6.69
17.10
26.01
33.08
38.12
41.09
42.03
41.08
38.46
34.54
29.86
25.00
20.56
16.94
14.28
12.41
10.95
9.49
7.76
5.71
3.50
1.37
-0.46
-1.88
-2.93
-3.74
-4.49
-5.38
-6.53
-7.99
-9.71
-11.55
-13.36
-15.03
-16.56
-17.97
-19.29
-20.45
-21.37
-22.08
-22.86
-24.29
-27.01
-31.35
-36.98
-42.74
-47.00
-48.13
-45.08
-37.72
-26.86
-13.88
-0.33
12.53
23.83
33.09
40.10
44.80
47.27
47.66
46.30
43.55
39.85
35.56
30.98
26.23
21.30
16.07
10.37
4.19
-2.38
-9.09
-15.62
-21.70
-27.20
-32.08
-36.38
-40.06
-42.96
-44.83
-45.46
-44.80
-43.08
-40.73
-38.25
-36.05
-34.29
-32.92
-31.80
-30.85
-30.14
-29.90
-30.49
-32.18
-35.05
-38.78
-42.62
-45.53
-46.36
-44.20
-38.67
-30.13
-19.53
-8.15
2.85
12.65
20.89
27.49
32.44
35.67
37.10
36.80
35.08
32.52
29.76
27.34
25.55
24.46
23.95
23.86
24.03
24.34
24.71
25.01
25.17
25.07
24.63
23.77
22.45
20.66
18.42
15.80
12.88
9.75
6.51
3.30
0.25
-2.56
-5.14
-7.60
-10.12
-12.88
-15.99
-19.43
-23.01
-26.34
-28.83
-29.72
-28.21
-23.70
-16.01
-5.56
6.70
19.54
31.74
42.36
50.85
56.93
60.52
61.60
60.32
57.06
52.51
47.58
43.11
39.67
37.34
35.80
34.54
33.10
31.23
28.90
26.18
23.18
19.91
16.35
12.39
7.97
3.11
-2.00
-7.02
-11.50
-15.05
-17.47
-18.92
-19.85
-20.84
-22.44
-24.97
-28.49
-32.80
-37.45
-41.75
-44.71
-45.27
-42.50
-36.01
-26.18
-14.17
-1.56
10.12
19.83
27.20
32.46
36.04
38.33
39.45
39.40
38.19
36.05
33.45
30.97
29.11
28.02
27.54
27.21
26.58
25.43
23.85
22.17
20.71
19.56
18.48
17.01
14.72
11.40
7.24
2.63
-2.00
-6.41
-10.58
-14.66
-18.79
-23.05
-27.49
-32.14
-37.07
-42.20
-47.20
-51.34
-53.54
-52.68
-47.95
-39.28
-27.42
-13.83
-0.21
11.92
21.61
28.60
33.16
35.81
37.02
37.12
36.25
34.59
32.37
29.92
27.60
25.64
24.06
22.66
21.10
19.08
16.41
13.07
9.20
5.07
0.96
-2.86
-6.29
-9.36
-12.27
-15.22
-18.42
-21.91
-25.65
-29.52
-33.42
-37.29
-41.14
-45.05
-49.10
-53.34
-57.64
-61.60
-64.45
-65.16
-62.62
-56.10
-45.55
-31.82
-16.54
-1.67
10.94
20.06
25.32
27.18
26.67
25.08
23.54
22.78
23.09
24.31
26.12
28.20
30.35
32.57
34.88
37.29
39.66
41.77
43.41
44.40
44.63
44.03
42.45
39.74
35.71
30.32
23.76
16.46
9.01
1.97
-4.32
-9.81
-14.72
-19.45
-24.39
-29.84
-35.98
-42.71
-49.61
-55.85
-60.33
-61.90
-59.78
-53.84
-44.68
-33.48
-21.60
-10.21
-0.09
8.35
14.93
19.58
22.23
22.86
21.56
18.60
14.41
9.60
4.76
0.47
-2.90
-5.24
-6.66
-7.38
-7.59
-7.33
-6.52
-5.08
-3.07
-0.84
1.05
1.96
1.47
-0.55
-3.80
-7.70
-11.58
-14.87
-17.30
-18.96
-20.26
-21.85
-24.46
-28.61
-34.39
-41.28
-48.08
-53.18
-55.01
-52.58
-45.83
-35.69
-23.75
-11.75
-1.10
7.39
13.50
17.45
19.59
20.31
19.86
18.42
16.14
13.18
9.74
6.07
2.44
-0.90
-3.77
-6.06
-7.79
-9.03
-9.91
-10.52
-10.94
-11.20
-11.36
-11.48
-11.71
-12.21
-13.16
-14.60
-16.47
-18.54
-20.59
-22.45
-24.06
-25.43
-26.65
-27.78
-28.97
-30.36
-32.10
-34.19
-36.31
-37.69
-37.26
-33.90
-26.84
-15.95
-1.90
14.06
30.40
45.73
59.07
70.01
78.58
85.09
89.85
93.11
94.94
95.33
94.28
91.80
87.99
82.99
77.09
70.77
64.77
59.97
57.11
56.42
57.43
59.02
59.79
58.56
54.81
48.79
41.33
33.47
26.09
19.67
14.32
9.84
5.79
1.68
-2.98
-8.53
-14.95
-21.94
-28.94
-35.41
-41.05
-45.85
-49.98
-53.53
-56.23
-57.49
-56.57
-52.93
-46.55
-38.04
-28.46
-18.96
-10.48
-3.48
1.92
5.78
8.25
9.40
9.31
8.21
6.48
4.57
2.90
1.67
0.80
0.06
-0.84
-2.06
-3.57
-5.17
-6.55
-7.48
-7.80
-7.52
-6.74
-5.63
-4.40
-3.20
-2.20
-1.56
-1.47
-2.08
-3.48
-5.71
-8.64
-12.10
-15.86
-19.66
-23.26
-26.51
-29.34
-31.85
-34.27
-36.80
-39.43
-41.76
-43.04
-42.40
-39.17
-33.27
-25.20
-15.98
-6.72
1.69
8.75
14.34
18.61
21.79
24.07
25.61
26.57
27.06
27.21
27.10
26.85
26.56
26.37
26.39
26.66
27.11
27.60
27.96
28.09
27.94
27.44
26.48
24.90
22.51
19.27
15.26
10.81
6.32
2.14
-1.53
-4.74
-7.68
-10.63
-13.81
-17.33
-21.19
-25.36
-29.87
-34.87
-40.59
-47.31
-55.14
-63.94
-73.17
-81.88
-88.86
-92.79
-92.63
-87.89
-78.82
-66.43
-52.22
-37.86
-24.75
-13.75
-5.12
1.34
6.07
9.53
12.02
13.67
14.55
14.69
14.25
13.48
12.67
12.07
11.84
12.01
12.56
13.40
14.41
15.43
16.24
16.63
16.49
15.84
14.82
13.65
12.49
11.37
10.19
8.74
6.82
4.32
1.29
-2.08
-5.50
-8.70
-11.50
-13.87
-16.02
-18.25
-20.83
-23.82
-26.96
-29.62
-30.93
-30.07
-26.47
-20.04
-11.17
-0.67
10.45
21.18
30.65
38.24
43.67
46.97
48.43
48.49
47.56
45.99
44.00
41.74
39.35
36.99
34.78
32.77
30.96
29.32
27.84
26.56
25.53
24.68
23.79
22.57
20.74
18.26
15.28
12.11
9.05
6.22
3.50
0.67
-2.47
-5.91
-9.40
-12.60
-15.20
-17.11
-18.47
-19.64
-21.09
-23.28
-26.55
-31.03
-36.46
-42.08
-46.69
-48.87
-47.45
-41.92
-32.70
-21.01
-8.44
3.50
13.85
22.24
28.81
33.91
37.82
40.71
42.64
43.72
44.12
44.17
44.13
44.15
44.20
44.06
43.47
42.29
40.53
38.35
35.98
33.53
31.00
28.24
25.08
21.40
17.18
12.48
7.41
2.13
-3.24
-8.54
-13.61
-18.37
-22.75
-26.75
-30.36
-33.51
-36.07
-37.90
-38.92
-39.27
-39.27
-39.41
-40.14
-41.72
-44.04
-46.53
-48.29
-48.32
-45.81
-40.45
-32.56
-23.01
-13.01
-3.78
3.81
9.30
12.67
14.19
14.17
12.92
10.64
7.54
3.87
-0.01
-3.66
-6.64
-8.65
-9.58
-9.53
-8.72
-7.36
-5.59
-3.43
-0.94
1.75
4.31
6.30
7.34
7.25
6.14
4.37
2.36
0.35
-1.66
-3.83
-6.32
-9.16
-12.11
-14.85
-17.11
-18.85
-20.30
-21.91
-24.23
-27.63
-32.16
-37.37
-42.35
-45.94
-47.04
-45.04
-40.01
-32.65
-24.02
-15.16
-6.79
0.69
7.18
12.62
16.97
20.22
22.41
23.75
24.47
24.79
24.76
24.36
23.56
22.48
21.41
20.71
20.72
21.62
23.41
26.00
29.30
33.27
37.91
43.18
48.83
54.38
59.08
62.06
62.55
60.11
54.86
47.53
39.36
31.77
26.07
23.00
22.62
24.25
26.70
28.56
28.57
25.92
20.36
12.35
2.98
-6.24
-13.72
-18.15
-18.87
-15.99
-10.40
-3.43
3.44
9.08
12.84
14.66
14.91
14.15
12.90
11.47
9.95
8.21
6.07
3.44
0.45
-2.58
-5.21
-7.08
-8.03
-8.18
-7.87
-7.53
-7.49
-7.98
-9.02
-10.49
-12.25
-14.20
-16.30
-18.53
-20.94
-23.51
-26.28
-29.29
-32.57
-36.13
-39.87
-43.67
-47.39
-50.95
-54.47
-58.23
-62.59
-67.85
-73.98
-80.56
-86.74
-91.37
-93.28
-91.59
-85.97
-76.77
-64.95
-51.79
-38.60
-26.43
-15.92
-7.26
-0.34
5.09
9.32
12.57
15.01
16.79
18.06
19.00
19.73
20.34
20.83
21.18
21.38
21.50
21.62
21.83
22.12
22.44
22.66
22.64
22.22
21.32
19.91
18.05
15.87
13.53
11.16
8.79
6.37
3.79
0.94
-2.26
-5.90
-10.09
-14.84
-19.95
-24.87
-28.69
-30.27
-28.68
-23.50
-15.06
-4.37
7.24
18.45
28.33
36.40
42.56
46.86
49.34
50.06
49.08
46.67
43.26
39.41
35.69
32.54
30.12
28.41
27.19
26.21
25.25
24.18
22.94
21.56
20.08
18.53
16.94
15.30
13.58
11.77
9.79
7.60
5.11
2.27
-0.95
-4.52
-8.34
-12.24
-16.10
-19.88
-23.71
-27.81
-32.43
-37.62
-42.99
-47.71
-50.62
-50.59
-46.91
-39.60
-29.43
-17.64
-5.59
5.67
15.53
23.78
30.44
35.65
39.58
42.51
44.82
46.91
49.01
51.13
52.98
54.19
54.51
53.99
52.96
51.86
51.00
50.45
49.95
49.14
47.71
45.52
42.55
38.83
34.20
28.34
20.91
11.75
1.21
-9.86
-20.26
-28.86
-34.97
-38.59
-40.26
-40.94
-41.57
-42.92
-45.43
-49.11
-53.51
-57.69
-60.34
-60.20
-56.36
-48.68
-37.84
-25.01
-11.47
1.86
14.50
26.26
36.99
46.33
53.71
58.61
60.78
60.34
57.71
53.42
47.98
41.84
35.42
29.18
23.57
18.88
15.18
12.29
9.86
7.58
5.27
2.92
0.60
-1.63
-3.76
-5.84
-7.92
-10.05
-12.27
-14.67
-17.38
-20.56
-24.34
-28.74
-33.70
-39.02
-44.39
-49.36
-53.39
-55.83
-56.01
-53.36
-47.60
-38.86
-27.82
-15.49
-3.10
8.25
17.73
24.90
29.66
32.17
32.71
31.65
29.33
26.07
22.14
17.78
13.16
8.44
3.68
-1.10
-5.93
-10.78
-15.52
-19.92
-23.74
-26.90
-29.53
-31.95
-34.54
-37.57
-41.10
-45.02
-49.14
-53.27
-57.34
-61.31
-65.19
-68.99
-72.72
-76.39
-80.02
-83.49
-86.45
-88.35
-88.36
-85.67
-79.68
-70.25
-57.77
-43.09
-27.38
-11.79
2.77
15.78
27.08
36.80
45.25
52.83
59.86
66.56
72.84
78.37
82.62
85.12
85.66
84.57
82.70
81.19
81.07
82.81
86.12
89.86
92.27
91.22
84.94
72.49
54.15
31.28
6.08
-18.89
-41.29
-59.40
-72.84
-82.04
-87.95
-91.76
-94.71
-97.80
-101.62
-106.10
-110.59
-114.57
-117.24
-117.65
-114.98
-108.95
-99.91
-88.68
-76.22
-63.33
-51.18
-40.26
-30.40
-20.97
-11.61
-2.51
5.70
12.37
21.55
34.87
51.37
67.97
81.53
90.11
93.17
91.27
85.94
79.37
73.01
67.99
64.84
63.52
63.42
63.68
63.31
61.53
57.95
52.17
44.92
37.67
33.15
33.54
39.44
49.23
59.77
67.62
70.08
66.38
57.66
46.34
34.79
24.74
16.79
10.98
7.33
5.81
6.33
8.23
10.29
10.63
9.32
5.82
-0.26
-8.46
-17.58
-26.21
-33.43
-39.04
-43.55
-47.77
-52.65
-59.28
-67.63
-76.38
-83.60
-87.80
-88.49
-86.14
-81.81
-76.91
-73.39
-72.14
-72.68
-73.53
-73.21
-70.68
-65.47
-57.72
-42.40
-19.42
6.23
27.76
41.49
48.03
50.22
50.89
51.71
52.86
53.24
52.24
50.48
49.34
49.79
51.73
54.21
55.95
55.71
52.80
47.81
42.39
38.37
36.61
36.61
36.84
35.63
31.11
23.12
12.75
1.82
-7.87
-15.50
-21.44
-26.90
-33.35
-42.75
-55.78
-72.25
-90.85
-108.85
-122.39
-127.16
-119.78
-95.25
-59.00
-19.15
16.06
40.98
54.01
57.24
54.64
49.93
45.25
40.55
36.25
32.98
31.57
32.37
34.72
36.92
37.12
33.67
25.72
14.62
2.73
-7.73
-15.40
-20.07
-22.34
-23.23
-23.27
-23.38
-23.64
-23.84
-23.85
-23.83
-24.29
-25.62
-28.17
-31.90
-36.56
-41.36
-45.28
-47.52
-47.70
-46.05
-43.38
-41.11
-40.34
-41.25
-43.53
-46.36
-48.79
-50.39
-51.60
-53.71
-58.30
-66.00
-76.20
-87.08
-96.14
-101.18
-100.98
-95.31
-84.29
-69.63
-52.56
-34.22
-15.74
1.80
17.69
31.85
44.95
57.95
71.35
84.89
97.26
106.72
112.15
113.64
112.49
110.59
109.53
109.91
111.51
113.33
114.16
112.89
108.74
101.32
90.63
77.11
61.58
45.25
29.37
15.01
2.84
-6.98
-14.71
-20.87
-25.97
-30.40
-34.27
-37.64
-40.74
-44.01
-47.90
-52.38
-56.53
-58.46
-55.88
-46.97
-31.30
-10.14
13.97
38.28
60.73
80.42
97.34
111.72
123.49
132.16
137.27
138.72
137.11
133.39
128.47
122.70
115.83
107.35
97.00
85.23
73.22
62.58
54.81
50.80
50.56
53.27
57.56
61.88
64.71
64.72
60.91
52.76
40.45
25.04
8.39
-7.21
-19.61
-27.37
-30.17
-28.63
-24.15
-18.17
-11.83
-5.72
0.06
5.78
11.97
19.24
27.94
37.78
47.69
55.94
60.65
60.28
54.28
43.32
29.11
13.79
-0.97
-14.08
-25.17
-34.38
-42.12
-48.72
-54.27
-58.60
-61.43
-63.03
-63.51
-62.90
-61.36
-59.38
-57.76
-57.32
-58.58
-61.76
-67.48
-75.33
-83.87
-91.41
-97.00
-100.81
-103.75
-106.99
-111.66
-119.84
-131.98
-146.65
-161.64
-175.22
-186.66
-195.89
-202.96
-208.08
-213.00
-217.62
-219.78
-216.71
-206.81
-190.39
-169.24
-145.44
-108.65
-58.05
-1.62
49.67
89.32
116.36
132.38
139.59
142.16
142.62
140.82
137.69
135.04
134.39
136.43
141.46
147.11
152.28
156.09
156.72
154.27
149.96
144.53
138.13
130.39
120.88
109.81
97.31
79.47
56.78
32.85
10.65
-8.43
-23.85
-35.01
-40.95
-41.64
-38.67
-35.53
-33.59
-34.42
-38.38
-44.26
-49.81
-52.55
-50.96
-45.17
-36.27
-23.84
-10.30
1.55
9.52
12.47
10.51
4.65
-3.63
-12.50
-20.48
-27.28
-32.76
-36.90
-39.99
-42.58
-45.57
-49.84
-55.87
-63.40
-71.83
-79.64
-84.76
-85.11
-79.07
-66.07
-47.13
-24.98
-3.51
13.35
23.32
26.52
25.14
22.36
20.83
22.18
26.09
30.58
33.30
33.36
31.52
29.06
26.82
25.07
23.68
22.37
21.15
20.42
20.69
22.17
24.73
27.89
31.23
34.61
37.13
38.04
37.22
35.25
33.12
31.81
31.99
33.98
37.46
41.08
42.93
40.94
33.49
19.74
0.12
-23.62
-47.89
-66.63
-75.01
-72.01
-60.75
-46.25
-32.76
-22.10
-13.83
-6.75
-0.43
3.75
4.14
-0.05
-7.77
-16.42
-22.88
-24.97
-22.28
-16.28
-9.72
-5.30
-4.74
-8.05
-14.38
-22.23
-29.92
-35.72
-38.12
-36.09
-29.33
-18.44
-4.84
9.49
22.54
32.86
39.88
43.93
45.76
46.24
46.04
45.52
44.75
43.64
42.09
40.05
37.59
34.78
31.69
28.24
24.29
19.71
14.54
9.15
4.15
0.24
-2.09
-2.80
-2.28
-1.27
-0.49
-0.45
-1.36
-3.20
-5.91
-9.39
-13.52
-18.08
-22.78
-27.29
-31.49
-35.54
-39.77
-44.45
-49.38
-53.75
-56.27
-55.59
-50.84
-42.07
-30.26
-17.04
-4.16
7.06
15.92
22.32
26.43
28.45
28.42
26.34
22.28
16.55
9.72
2.49
-4.49
-10.80
-16.33
-21.22
-25.63
-29.68
-33.25
-36.14
-38.21
-39.63
-40.90
-42.72
-45.69
-50.02
-55.36
-60.92
-65.75
-69.14
-70.76
-70.82
-69.87
-68.70
-68.04
-68.31
-69.40
-70.51
-70.29
-67.11
-59.65
-47.39
-30.80
-11.24
9.49
29.65
47.93
63.58
76.32
86.09
92.95
97.04
98.53
97.81
95.36
91.85
87.90
83.99
80.36
76.89
73.25
68.97
63.72
57.45
50.43
43.14
36.10
29.57
23.51
17.64
11.56
5.01
-1.99
-9.02
-15.47
-20.64
-24.08
-25.80
-26.32
-26.45
-26.98
-28.22
-29.78
-30.53
-29.00
-23.88
-14.56
-1.32
14.63
31.51
47.41
60.66
70.12
75.31
76.32
73.73
68.39
61.27
53.35
45.44
38.16
31.81
26.43
21.82
17.67
13.70
9.64
5.40
0.95
-3.60
-8.03
-12.00
-15.11
-17.02
-17.59
-17.00
-15.70
-14.32
-13.32
-12.77
-12.23
-10.84
-7.60
-1.74
7.06
18.51
31.75
45.54
58.51
69.43
77.35
81.79
82.69
80.37
75.52
68.98
61.68
54.50
48.01
42.45
37.66
33.14
28.30
22.68
16.13
8.88
1.51
-5.23
-10.72
-14.66
-17.21
-18.97
-20.81
-23.55
-27.72
-33.50
-40.65
-48.66
-56.78
-64.09
-69.39
-71.30
-68.56
-60.40
-47.05
-29.86
-11.05
6.90
21.86
32.69
39.26
42.27
42.72
41.48
39.12
35.88
31.87
27.26
22.32
17.29
12.34
7.48
2.58
-2.45
-7.56
-12.47
-16.77
-20.02
-21.89
-22.22
-21.12
-18.92
-16.17
-13.59
-11.93
-11.81
-13.42
-16.46
-20.11
-23.34
-25.15
-24.89
-22.39
-17.86
-11.76
-4.57
3.21
11.03
18.28
24.34
28.74
31.37
32.65
33.42
34.73
37.40
41.70
47.18
52.76
57.11
59.12
58.28
54.79
49.38
42.91
35.95
28.67
20.97
12.71
4.01
-4.82
-13.60
-22.46
-31.89
-42.28
-53.40
-64.05
-72.23
-76.01
-74.39
-67.92
-58.58
-49.00
-41.47
-37.18
-36.08
-37.23
-39.47
-41.89
-44.11
-46.20
-48.32
-50.57
-52.76
-54.50
-55.38
-55.24
-54.30
-53.09
-52.24
-52.13
-52.70
-53.43
-53.58
-52.60
-50.30
-46.98
-43.20
-39.52
-36.32
-33.77
-31.80
-30.23
-28.77
-27.13
-24.98
-21.89
-17.54
-11.71
-4.53
3.59
12.17
20.74
28.97
36.56
43.19
48.32
51.39
51.77
49.26
44.38
38.31
32.43
27.85
25.08
23.89
23.45
22.12
18.52
12.01
2.93
-7.86
-19.47
-31.09
-42.28
-52.54
-62.43
-72.15
-81.29
-89.07
-95.25
-100.52
-105.91
-112.34
-119.57
-128.00
-137.07
-145.28
-150.66
-151.95
-149.13
-142.83
-134.37
-124.64
-116.62
-112.48
-112.69
-115.64
-119.31
-122.34
-123.94
-124.28
-108.17
-67.29
-4.09
68.68
137.10
192.38
230.26
255.62
272.71
285.22
293.68
298.28
297.24
290.56
278.56
261.65
240.86
217.06
191.70
164.38
134.72
103.16
71.86
43.46
20.34
4.17
-5.08
-8.42
-8.81
-9.22
-11.56
-15.83
-20.96
-25.64
-28.71
-30.01
-29.88
-29.57
-30.23
-32.29
-35.20
-37.94
-39.61
-39.68
-38.29
-35.92
-33.43
-31.69
-31.43
-32.99
-36.58
-42.17
-49.43
-57.69
-65.97
-73.24
-78.77
-82.37
-84.41
-85.63
-86.77
-88.24
-89.95
-91.37
-91.70
-90.08
-85.84
-78.57
-68.20
-55.04
-39.72
-23.16
-6.57
8.85
22.09
32.61
40.51
46.38
51.14
55.67
60.47
65.45
70.12
73.87
76.24
77.05
76.28
74.15
71.05
67.33
63.26
58.95
54.45
49.73
44.65
38.85
32.32
25.48
18.91
12.85
7.07
0.83
-6.87
-16.89
-30.03
-45.85
-62.73
-78.50
-91.35
-100.33
-105.32
-106.85
-105.63
-102.76
-98.34
-91.60
-81.54
-67.76
-50.61
-31.07
-10.50
13.12
37.64
58.42
71.39
75.86
74.08
69.13
63.51
58.51
54.38
50.12
45.19
39.93
35.09
31.34
29.00
27.91
27.45
26.27
22.77
16.31
7.42
-2.46
-11.68
-18.75
-22.63
-22.84
-18.39
-10.88
-2.73
3.50
5.62
2.36
-6.03
-17.67
-29.69
-39.82
-46.56
-49.21
-47.95
-43.63
-37.42
-30.56
-24.17
-19.03
-15.53
-13.53
-12.39
-11.31
-9.56
-6.58
-1.93
4.77
13.90
24.41
35.19
45.05
52.87
57.98
60.44
60.96
60.49
59.90
59.55
59.49
59.50
59.33
58.90
58.26
57.57
56.91
56.37
56.11
56.66
58.78
63.18
70.18
79.41
89.77
99.79
108.03
113.54
116.14
116.16
114.11
110.42
105.32
98.83
90.88
81.40
70.44
58.18
45.04
31.59
18.48
6.23
-4.94
-15.22
-25.10
-35.09
-45.49
-56.17
-66.73
-76.69
-85.85
-94.36
-102.58
-110.71
-118.44
-124.85
-128.74
-129.14
-125.68
-118.81
-109.50
-98.86
-87.78
-76.84
-66.44
-56.89
-48.56
-41.77
-36.71
-33.37
-31.60
-31.25
-32.19
-34.24
-37.13
-40.44
-43.65
-46.24
-47.74
-47.88
-46.60
-44.16
-41.13
-38.43
-37.16
-38.39
-42.86
-50.71
-61.51
-74.36
-88.11
-101.63
-113.84
-123.79
-130.51
-133.16
-131.17
-124.48
-113.70
-100.07
-85.10
-70.21
-56.27
-43.53
-31.76
-20.56
-9.75
0.56
9.94
17.86
23.91
27.96
30.13
30.80
30.37
29.22
27.52
25.41
22.94
20.28
17.79
15.90
14.98
15.10
15.94
16.88
17.19
16.38
14.37
11.56
8.70
6.74
6.58
8.97
14.29
22.48
32.98
44.87
57.03
68.41
78.23
86.07
91.80
95.55
97.50
97.87
96.87
94.72
91.64
87.91
83.74
79.29
74.56
69.45
63.78
57.45
50.57
43.40
36.31
29.57
23.15
16.76
9.91
2.12
-6.89
-17.14
-28.24
-39.42
-49.54
-57.18
-61.02
-60.23
-54.77
-45.53
-34.15
-22.45
-11.99
-3.74
2.04
5.58
7.35
7.86
7.51
6.61
5.41
4.07
2.70
1.38
0.09
-1.22
-2.66
-4.35
-6.33
-8.46
-10.44
-11.84
-12.34
-11.91
-10.91
-10.07
-10.12
-11.52
-14.13
-17.07
-18.90
-18.05
-13.35
-4.51
7.77
21.92
36.03
48.45
58.19
65.04
69.36
71.79
72.92
73.10
72.47
70.99
68.63
65.39
61.36
56.64
51.36
45.60
39.43
32.98
26.47
20.21
14.47
9.34
4.74
0.39
-4.14
-9.28
-15.37
-22.61
-30.95
-39.99
-48.90
-56.53
-61.63
-63.22
-60.91
-55.09
-46.83
-37.50
-28.39
-20.37
-13.78
-8.50
-4.27
-0.88
1.61
3.07
3.38
2.69
1.44
0.15
-0.72
-1.07
-1.09
-1.10
-1.31
-1.74
-2.13
-2.18
-1.70
-0.78
0.23
0.83
0.58
-0.72
-2.92
-5.55
-7.96
-9.44
-9.38
-7.37
-3.25
2.84
10.41
18.70
26.81
33.84
39.08
42.22
43.30
42.67
40.87
38.43
35.74
33.03
30.36
27.68
24.84
21.72
18.26
14.49
10.67
7.07
3.80
0.79
-2.11
-5.11
-8.43
-12.33
-17.15
-23.05
-30.02
-37.78
-45.66
-52.67
-57.61
-59.44
-57.59
-52.11
-43.29
-31.86
-18.85
-5.43
7.32
18.67
28.21
35.78
41.40
46.13
50.95
56.34
62.16
68.00
73.51
78.38
82.20
84.50
86.62
89.67
93.81
98.06
101.23
102.69
102.44
100.63
97.35
95.36
96.63
101.17
107.07
112.15
115.47
117.41
119.02
121.27
128.47
143.65
166.80
194.73
223.19
248.86
269.85
285.25
272.49
219.99
133.23
33.26
-58.04
-129.25
-179.32
-212.37
-233.54
-247.02
-251.84
-246.83
-232.99
-214.11
-194.80
-178.34
-166.00
-157.57
-152.27
-146.49
-137.64
-125.47
-111.84
-98.99
-87.97
-78.49
-69.95
-62.69
-55.57
-48.18
-40.96
-34.86
-30.53
-28.01
-26.68
-25.91
-25.69
-25.29
-24.06
-21.68
-18.38
-14.88
-12.02
-9.96
-8.18
-6.22
-3.29
1.10
6.90
13.48
21.84
30.45
36.46
39.74
40.39
38.43
33.81
26.21
17.03
6.94
-3.75
-14.34
-23.77
-31.38
-36.80
-40.16
-42.04
-43.21
-44.55
-46.60
-49.12
-51.37
-53.15
-54.82
-57.07
-60.52
-65.23
-70.71
-76.15
-80.55
-83.21
-84.27
-84.33
-84.08
-83.97
-84.03
-84.09
-83.80
-82.72
-80.36
-76.51
-71.25
-64.90
-58.01
-51.01
-44.19
-37.43
-30.29
-22.26
-13.14
-3.16
7.13
17.12
26.50
35.29
43.61
51.39
58.09
62.78
64.51
62.79
57.81
50.52
42.31
34.51
28.03
23.20
19.73
17.00
14.27
10.89
6.52
1.17
-4.83
-10.96
-16.69
-21.63
-25.71
-29.10
-32.25
-35.67
-39.81
-44.83
-50.42
-55.79
-59.82
-61.31
-59.33
-53.52
-44.10
-31.83
-17.76
-3.05
11.31
24.48
35.84
44.95
51.53
55.52
57.11
56.77
55.24
53.32
51.68
50.60
49.88
48.96
47.17
44.10
39.72
34.37
28.54
22.70
17.09
11.71
6.36
0.73
-5.52
-12.58
-20.36
-28.37
-35.74
-41.30
-43.96
-42.96
-38.13
-29.86
-18.99
-6.54
6.42
18.95
30.28
39.82
47.18
52.11
54.51
54.44
52.11
48.01
42.77
37.19
31.95
27.49
23.90
20.93
18.17
15.28
12.15
8.89
5.79
3.04
0.70
-1.36
-3.41
-5.63
-8.09
-10.63
-12.82
-13.94
-13.15
-9.59
-2.64
7.90
21.69
37.93
55.41
72.77
88.59
101.63
111.00
116.35
117.99
116.83
114.06
110.85
107.97
105.74
104.06
102.61
101.12
99.54
98.10
97.26
97.57
99.41
102.78
107.07
111.17
113.78
113.90
111.27
106.54
101.21
97.22
96.36
99.54
106.21
114.13
119.81
119.50
110.37
91.62
64.67
32.59
-1.03
-33.23
-62.31
-87.76
-109.78
-128.74
-144.93
-158.62
-170.17
-180.00
-188.44
-195.45
-200.55
-203.09
-202.60
-199.18
-193.56
-186.90
-180.40
-174.91
-170.61
-167.15
-163.83
-159.99
-155.27
-149.73
-143.85
-138.26
-133.43
-129.27
-124.93
-119.01
-110.02
-96.98
-79.81
-59.54
-37.99
-17.23
1.10
16.06
27.39
35.24
39.99
42.31
42.90
42.39
41.24
39.79
38.29
36.85
35.42
33.87
32.44
31.47
31.08
31.20
31.71
32.63
33.97
35.75
37.91
40.85
44.88
49.93
55.43
60.68
65.10
68.31
70.19
67.96
60.38
48.92
37.15
28.17
22.96
20.69
19.79
18.82
16.88
14.25
11.61
9.50
7.95
6.74
5.65
4.56
3.50
2.58
2.37
3.36
5.57
8.54
11.64
14.37
16.52
18.01
18.81
19.11
18.97
18.32
16.99
14.93
12.39
9.68
6.99
4.32
1.38
-2.05
-6.09
-10.60
-15.16
-19.14
-22.10
-24.11
-25.69
-27.57
-30.12
-33.27
-36.45
-38.86
-39.64
-38.24
-34.68
-29.54
-23.82
-18.44
-14.11
-11.17
-9.56
-8.68
-7.86
-6.79
-5.62
-4.90
-5.00
-5.86
-6.93
-7.36
-6.18
-2.74
2.84
10.59
19.59
28.77
36.99
43.09
44.74
40.25
30.19
16.95
3.34
-8.72
-18.08
-24.43
-27.97
-29.27
-28.87
-27.19
-25.00
-23.17
-22.48
-23.16
-24.93
-27.16
-29.19
-30.95
-31.78
-31.66
-30.90
-29.92
-28.88
-27.81
-26.65
-25.48
-24.33
-23.18
-22.11
-21.18
-20.41
-19.75
-19.27
-19.15
-19.70
-21.06
-23.58
-27.35
-32.19
-37.57
-42.65
-46.39
-47.67
-45.64
-39.94
-30.79
-19.01
-5.84
7.38
19.51
29.65
37.21
41.84
43.44
42.18
38.57
33.34
27.36
21.42
16.05
11.44
7.46
3.83
0.27
-3.39
-7.09
-10.69
-14.03
-17.01
-19.68
-22.22
-24.80
-27.51
-30.33
-33.11
-35.77
-38.45
-41.55
-45.68
-51.31
-58.42
-66.18
-72.98
-76.77
-75.68
-68.72
-56.09
-39.15
-19.91
-0.43
17.75
33.76
47.26
58.05
65.82
70.08
70.40
66.84
60.11
51.65
43.18
36.16
31.41
28.84
27.79
27.32
26.72
25.72
24.34
22.75
20.92
18.58
15.36
10.90
5.08
-2.09
-10.50
-20.12
-30.86
-42.36
-53.74
-63.44
-69.56
-70.40
-65.12
-54.17
-39.18
-22.48
-6.27
7.93
19.45
28.20
34.22
37.43
37.68
35.14
30.50
25.03
20.13
16.82
15.38
15.34
15.86
16.18
16.02
15.49
14.98
14.75
14.87
15.12
15.21
14.86
13.88
12.12
9.34
5.38
0.17
-5.94
-12.09
-16.97
-19.15
-17.48
-11.44
-1.32
11.98
27.24
43.16
58.56
72.45
84.07
92.82
98.44
101.02
100.95
98.80
95.17
90.52
85.13
79.15
72.71
65.96
59.10
52.40
46.04
40.08
34.41
28.82
23.12
17.24
11.27
5.44
-0.07
-5.24
-10.29
-15.68
-21.84
-28.88
-36.34
-43.11
-47.67
-48.52
-44.67
-36.02
-23.43
-8.41
7.29
22.17
35.17
45.80
53.93
59.70
63.39
65.42
66.35
66.81
67.31
68.09
69.02
69.73
69.89
69.38
68.43
67.43
66.78
66.75
67.44
68.95
71.40
74.85
79.10
83.48
86.88
88.01
85.94
80.43
72.06
61.94
51.24
40.94
31.68
23.92
18.08
14.67
14.18
16.87
22.60
30.78
40.46
50.36
58.93
64.31
64.59
58.14
44.23
23.50
-1.78
-28.16
-51.83
-69.68
-80.15
-83.49
-81.41
-76.34
-70.64
-66.03
-63.48
-63.35
-65.64
-70.11
-76.32
-83.60
-91.10
-97.99
-103.70
-108.01
-111.01
-112.81
-113.24
-111.80
-107.80
-100.64
-90.19
-76.91
-61.82
-46.36
-32.03
-20.00
-10.89
-4.74
-1.20
0.29
0.21
-1.09
-3.51
-6.94
-11.07
-15.30
-19.00
-21.68
-23.32
-24.20
-24.78
-25.58
-26.95
-28.97
-31.46
-34.34
-37.60
-41.35
-45.68
-49.77
-52.51
-53.35
-52.51
-50.39
-46.98
-41.93
-35.27
-27.83
-20.98
-16.23
-14.30
-14.67
-15.72
-15.67
-13.12
-7.72
0.07
9.23
18.45
26.33
31.72
34.64
34.66
32.06
27.60
22.24
16.94
12.28
8.55
5.98
4.72
4.81
6.14
8.26
10.46
12.20
13.14
13.35
13.29
13.69
15.28
18.78
24.80
32.82
42.30
52.46
62.38
71.21
78.28
83.13
85.67
86.06
84.58
81.58
77.32
72.06
66.03
59.44
52.37
44.87
37.05
29.03
20.83
12.43
3.86
-4.75
-13.13
-20.99
-27.98
-33.68
-37.95
-41.41
-44.83
-48.71
-53.15
-57.84
-62.77
-67.67
-71.98
-74.98
-76.72
-77.00
-75.12
-70.63
-63.51
-55.55
-48.57
-43.50
-40.34
-39.62
-40.95
-42.95
-44.11
-43.14
-41.01
-38.69
-36.45
-34.37
-34.43
-38.08
-45.35
-55.12
-65.15
-75.16
-84.65
-92.84
-86.87
-62.00
-25.07
11.29
32.11
40.92
41.84
37.34
31.75
26.46
19.94
11.10
0.74
-8.82
-14.35
-15.13
-11.04
-2.12
10.73
24.75
37.61
48.49
57.78
66.78
75.07
82.12
87.78
91.84
93.53
92.80
90.61
88.39
87.37
86.98
86.10
83.80
79.43
72.44
63.06
52.21
41.02
30.41
20.35
10.61
1.04
-8.54
-18.76
-30.02
-42.32
-55.29
-68.36
-81.00
-92.49
-101.96
-108.67
-112.88
-114.79
-114.31
-111.30
-105.94
-98.75
-90.34
-81.20
-71.63
-63.05
-56.14
-50.64
-45.99
-42.11
-39.71
-39.62
-42.26
-47.19
-54.70
-63.63
-71.57
-76.17
-76.54
-73.57
-68.99
-64.38
-50.97
-26.99
1.84
27.00
43.52
50.70
49.99
43.77
34.71
25.42
16.27
7.74
0.98
-3.66
-4.88
-2.48
2.90
10.13
18.13
24.57
28.17
29.32
29.37
29.78
31.15
33.83
36.54
38.64
38.91
36.90
33.24
29.14
25.75
23.48
22.28
21.90
22.01
21.58
19.57
15.76
10.52
4.60
-1.41
-7.13
-11.92
-15.31
-17.64
-19.99
-22.69
-25.72
-28.78
-31.64
-33.82
-33.43
-28.57
-18.41
-4.48
12.10
29.76
46.88
61.66
72.95
82.22
91.10
100.00
106.45
109.72
109.75
107.19
102.53
96.47
92.10
91.79
95.92
101.24
107.09
113.70
121.82
131.24
127.61
103.52
63.30
31.23
10.30
-0.95
-8.60
-14.69
-20.72
-27.71
-33.97
-37.77
-38.66
-39.14
-38.92
-37.03
-32.44
-25.62
-17.96
-9.44
-0.45
7.66
11.46
10.23
4.47
-4.38
-15.16
-26.75
-36.98
-44.12
-47.63
-49.05
-49.03
-48.09
-46.62
-45.26
-44.55
-44.14
-43.47
-42.27
-41.08
-40.01
-39.13
-38.43
-37.95
-37.74
-37.66
-37.76
-38.35
-39.93
-42.42
-45.07
-46.65
-45.98
-42.29
-35.56
-26.50
-16.18
-5.69
4.14
12.79
19.95
25.37
28.84
30.28
29.82
27.79
24.67
20.87
16.71
12.41
8.08
3.88
-0.12
-3.88
-7.49
-11.03
-14.59
-18.01
-20.95
-23.03
-24.07
-24.30
-24.41
-25.36
-28.06
-33.03
-40.11
-48.44
-56.51
-62.45
-64.34
-60.72
-50.93
-35.44
-15.73
5.99
27.33
46.24
61.36
72.07
78.27
80.20
78.18
72.70
64.36
54.09
42.98
32.21
22.70
14.90
8.73
3.54
-1.50
-7.26
-14.22
-22.45
-31.58
-41.00
-50.19
-58.86
-67.12
-75.34
-83.98
-93.16
-102.52
-110.97
-117.01
-118.97
-115.49
-105.94
-90.52
-70.33
-47.02
-22.52
1.32
23.01
41.47
56.04
66.45
72.92
76.14
77.15
77.18
77.19
77.56
77.90
77.27
74.51
68.82
60.00
48.49
35.14
20.95
6.80
-6.67
-19.11
-30.55
-41.38
-52.15
-63.22
-74.47
-84.99
-93.30
-97.80
-97.36
-91.76
-81.89
-69.29
-55.63
-42.17
-29.59
-18.11
-7.74
1.60
10.01
17.56
24.38
30.62
36.40
41.56
45.65
48.00
48.17
45.97
41.61
35.59
28.68
21.76
15.60
10.69
7.14
5.26
5.13
6.51
8.79
11.31
13.73
16.18
19.28
24.17
33.15
48.23
70.06
97.22
126.76
155.20
179.38
197.12
207.68
213.08
215.91
217.66
217.77
214.45
206.05
191.80
171.81
146.94
120.31
95.14
73.84
57.83
48.36
46.83
53.42
65.92
68.42
48.73
5.54
-49.25
-99.85
-136.08
-155.66
-162.37
-162.57
-161.92
-161.36
-158.92
-151.87
-138.99
-121.55
-101.22
-80.54
-62.36
-49.11
-40.59
-35.40
-32.04
-29.98
-29.48
-30.82
-34.20
-39.45
-46.00
-51.60
-54.59
-54.88
-54.09
-54.56
-57.96
-64.69
-73.74
-83.06
-89.89
-92.11
-89.19
-82.36
-74.11
-66.94
-62.54
-61.07
-61.07
-59.95
-55.11
-45.11
-30.07
-11.65
7.79
25.89
40.88
51.92
58.85
62.04
62.02
59.37
54.70
48.66
41.91
35.10
28.65
22.59
16.56
9.97
2.47
-5.84
-14.17
-21.38
-26.34
-28.52
-28.16
-26.15
-23.69
-21.83
-21.24
-22.21
-24.62
-27.99
-31.39
-33.56
-33.13
-29.01
-20.74
-8.67
6.11
22.22
38.23
53.06
65.92
76.26
83.68
87.95
89.19
87.85
84.57
80.02
74.65
68.45
60.90
51.13
38.47
22.81
4.99
-13.28
-29.85
-42.46
-49.78
-52.00
-50.75
-48.42
-47.38
-49.09
-53.87
-61.02
-68.54
-74.28
-76.64
-74.74
-68.23
-57.38
-42.72
-25.43
-7.23
10.92
28.06
43.16
55.38
64.46
70.59
74.78
77.94
80.67
84.44
90.07
97.33
105.11
112.24
117.72
121.70
124.55
119.94
105.03
82.04
56.74
33.70
16.36
1.92
-11.40
-24.22
-36.60
-46.82
-53.41
-56.19
-56.20
-54.67
-52.66
-49.97
-46.15
-40.92
-33.57
-24.24
-14.14
-5.06
1.61
5.21
6.39
6.04
4.81
3.50
2.35
1.13
-0.57
-2.93
-5.91
-9.14
-12.56
-16.54
-21.39
-27.41
-34.71
-42.98
-51.36
-58.66
-63.52
-65.06
-63.14
-58.39
-52.12
-46.03
-41.60
-39.59
-39.73
-40.70
-40.64
-37.82
-31.18
-20.79
-7.68
6.47
19.96
31.50
40.42
46.54
50.00
51.03
49.98
47.29
43.56
39.39
35.15
30.82
25.95
20.01
12.81
4.94
-2.40
-7.79
-10.37
-10.27
-8.78
-7.71
-8.78
-12.96
-20.33
-30.27
-41.84
-54.03
-65.77
-75.90
-83.04
-85.87
-83.50
-75.80
-63.61
-48.62
-32.94
-18.60
-7.11
0.81
5.14
6.38
5.15
2.01
-2.55
-8.11
-14.22
-20.44
-26.51
-32.56
-39.14
-46.93
-56.26
-66.59
-76.34
-83.12
-84.55
-79.17
-67.19
-50.61
-32.69
-16.96
-6.18
-1.71
-3.28
-9.37
-17.73
-25.90
-31.68
-33.38
-30.05
-21.53
-8.52
7.56
24.83
41.26
55.02
64.80
70.08
71.02
68.39
63.25
56.63
49.34
42.07
35.45
30.11
26.57
24.89
24.55
24.40
23.10
19.60
13.75
6.34
-1.11
-6.95
-9.97
-9.85
-7.21
-3.34
0.25
2.34
2.50
1.18
-0.40
-0.72
1.56
7.16
15.94
26.97
38.78
49.76
58.47
64.03
66.20
65.36
62.36
58.17
53.58
49.06
44.61
40.02
34.96
29.20
22.65
15.39
7.62
-0.34
-8.16
-15.53
-22.30
-28.54
-34.47
-40.31
-46.04
-51.37
-55.79
-58.84
-60.28
-60.19
-58.77
-56.04
-51.67
-44.98
-35.37
-22.75
-7.78
8.14
23.30
36.27
46.27
53.30
57.85
60.57
61.93
62.05
60.78
57.94
53.49
47.70
41.14
34.54
28.60
23.86
20.57
18.75
18.23
18.77
19.99
21.48
22.75
23.39
23.16
22.05
20.16
17.60
14.31
10.26
5.55
0.70
-3.33
-5.43
-4.65
-0.68
6.09
14.78
24.28
33.72
42.47
50.16
56.48
60.98
62.97
61.59
56.03
46.00
32.09
15.94
-0.06
-13.45
-22.49
-26.74
-27.10
-25.24
-22.90
-21.14
-20.13
-19.46
-18.64
-17.46
-16.12
-15.07
-14.80
-15.69
-18.10
-22.35
-28.75
-37.33
-47.44
-57.52
-65.29
-68.44
-65.37
-55.95
-41.55
-24.65
-7.89
6.77
18.49
27.42
34.04
38.76
41.62
42.47
41.15
37.92
33.43
28.79
25.16
23.28
23.45
25.49
28.77
32.31
34.98
35.69
33.82
29.26
22.20
13.44
4.09
-4.68
-12.13
-18.23
-24.40
-31.39
-39.16
-47.10
-53.99
-58.59
-60.10
-58.50
-54.59
-49.57
-45.26
-41.64
-38.64
-36.08
-33.82
-31.90
-30.53
-29.94
-30.18
-30.94
-31.02
-29.94
-27.49
-23.80
-19.23
-14.27
-9.39
-4.97
-1.20
1.91
4.14
5.38
5.61
4.91
3.39
1.15
-1.65
-4.91
-8.58
-13.00
-18.43
-24.92
-31.97
-38.46
-42.82
-43.54
-39.67
-31.22
-19.27
-5.49
8.33
20.79
31.12
39.07
44.80
48.57
50.62
51.15
50.44
48.92
47.11
45.53
44.47
43.83
43.26
42.24
40.36
37.41
33.35
28.19
22.01
15.01
7.68
0.78
-4.84
-8.53
-10.15
-10.05
-8.75
-6.62
-3.54
0.98
7.54
16.40
27.30
39.51
52.09
64.11
74.84
83.70
90.24
94.16
95.37
94.08
90.72
85.79
79.71
72.69
64.78
56.03
46.58
36.75
26.94
17.42
8.29
-0.58
-9.32
-17.98
-26.41
-34.32
-41.46
-47.71
-53.14
-57.97
-62.45
-66.77
-71.11
-75.61
-80.42
-85.63
-91.10
-96.38
-100.66
-102.97
-102.47
-98.86
-92.48
-84.26
-75.37
-66.77
-58.92
-51.71
-44.66
-37.21
-29.05
-20.20
-11.04
-2.19
5.66
11.89
16.09
18.22
18.69
18.34
18.17
19.04
21.25
24.49
27.94
30.66
31.98
31.65
29.78
26.51
21.87
15.67
7.90
-0.98
-9.70
-16.31
-18.82
-15.80
-6.94
6.77
23.45
40.92
57.38
71.85
84.19
94.94
104.85
114.47
123.72
131.71
136.69
136.37
128.55
111.98
86.93
55.55
21.44
-11.28
-39.08
-59.99
-73.84
-82.08
-86.94
-90.67
-94.87
-100.34
-107.14
-115.05
-123.74
-132.88
-141.94
-150.02
-155.74
-157.51
-153.99
-144.61
-129.82
-110.97
-89.90
-68.22
-46.94
-26.29
-5.94
14.55
35.36
56.15
76.04
93.78
107.98
117.44
121.36
119.47
112.14
100.28
85.23
68.52
51.66
35.82
21.66
9.24
-1.92
-12.57
-23.40
-34.74
-46.45
-58.04
-68.91
-78.60
-86.88
-93.52
-98.13
-99.99
-98.24
-92.33
-82.43
-69.49
-55.08
-40.79
-27.69
-16.09
-5.64
4.26
14.10
24.07
34.07
43.84
52.93
60.66
66.15
68.41
66.63
60.54
50.55
37.85
24.23
11.73
2.15
-3.46
-5.13
-4.06
-2.31
-2.13
-5.30
-12.53
-23.29
-36.09
-48.93
-59.72
-66.65
-68.37
-64.18
-54.26
-39.79
-22.77
-5.61
9.52
21.28
29.34
34.25
36.99
38.37
38.80
38.22
36.45
33.51
29.76
25.90
22.64
20.34
18.92
17.76
16.01
12.79
7.47
-0.14
-9.68
-20.40
-31.25
-41.37
-50.26
-57.97
-64.84
-71.16
-76.83
-81.20
-83.34
-82.44
-78.23
-71.11
-61.87
-51.38
-40.26
-28.90
-17.60
-6.85
2.66
10.16
15.08
17.29
17.23
15.73
13.90
12.73
12.93
14.65
17.48
20.46
22.37
22.07
18.87
12.83
4.79
-3.82
-11.42
-16.84
-19.80
-21.06
-22.22
-25.06
-30.68
-38.87
-47.91
-55.04
-57.38
-52.97
-41.48
-24.23
-3.61
17.71
37.59
54.70
68.43
78.56
84.98
87.63
86.61
82.40
75.92
68.35
60.77
53.98
48.23
43.35
38.99
34.79
30.64
26.63
22.97
19.73
16.66
13.24
8.78
2.70
-5.21
-14.65
-24.78
-34.25
-41.47
-44.84
-43.14
-35.92
-23.67
-7.93
9.25
25.74
40.00
51.29
59.59
65.25
68.65
70.00
69.34
66.73
62.37
56.70
50.25
43.46
36.60
29.80
23.15
16.96
11.69
7.82
5.39
3.70
1.27
-3.73
-12.73
-26.08
-42.74
-60.53
-76.82
-89.30
-96.34
-97.21
-91.79
-80.52
-64.25
-44.27
-22.23
0.05
21.05
39.88
56.31
70.62
83.14
93.92
102.62
108.59
111.20
110.17
105.63
98.09
88.33
77.30
66.05
55.73
47.28
41.28
37.72
36.02
35.27
34.66
33.78
32.70
31.83
31.58
32.04
32.87
33.40
32.86
30.72
26.90
21.86
16.45
11.70
8.50
7.27
7.88
9.67
11.67
12.94
12.91
11.49
9.00
6.03
3.09
0.49
-1.72
-3.63
-5.38
-7.10
-8.96
-11.18
-13.88
-17.08
-20.56
-23.92
-26.78
-28.96
-30.61
-32.13
-34.01
-36.57
-39.78
-43.19
-46.06
-47.48
-46.65
-43.19
-37.31
-29.90
-22.41
-16.34
-12.77
-11.89
-12.87
-14.14
-13.95
-11.04
-5.15
2.89
11.51
19.01
24.05
26.14
25.58
23.22
20.08
17.02
14.61
13.14
12.63
12.89
13.56
14.07
13.75
11.96
8.32
2.85
-3.89
-10.92
-17.01
-20.98
-22.08
-20.17
-15.89
-10.50
-5.52
-2.33
-1.67
-3.55
-7.29
-11.92
-16.58
-20.78
-24.38
-27.46
-30.09
-32.20
-33.68
-34.48
-34.74
-34.74
-34.82
-35.23
-35.98
-36.89
-37.65
-37.91
-37.50
-36.50
-35.21
-34.15
-33.83
-34.68
-36.81
-39.87
-43.04
-45.11
-44.81
-41.24
-34.30
-24.90
-14.81
-6.06
-0.33
1.59
0.04
-3.80
-8.38
-12.40
-15.04
-15.99
-15.33
-13.43
-10.97
-8.83
-7.81
-8.36
-10.34
-12.96
-14.97
-15.18
-12.92
-8.54
-3.22
1.40
3.76
2.78
-1.75
-9.10
-17.72
-25.64
-31.36
-33.89
-32.84
-28.46
-21.72
-14.01
-6.73
-0.80
3.46
5.52
5.32
3.54
1.43
0.09
0.13
1.62
4.21
7.23
8.75
7.33
3.05
-2.50
-7.34
-10.04
-9.96
-7.26
-2.81
0.64
0.42
-4.68
-14.30
-27.42
-42.74
-58.47
-72.27
-73.27
-55.31
-22.20
14.80
45.71
66.10
76.01
77.92
75.13
70.62
64.96
57.56
48.62
39.52
31.72
26.07
22.78
21.48
21.32
20.03
16.28
9.97
2.41
-4.75
-10.34
-13.90
-15.69
-16.45
-17.81
-21.08
-26.61
-33.76
-41.62
-49.39
-56.36
-61.74
-64.58
-64.29
-60.52
-53.29
-43.05
-30.84
-17.99
-5.64
5.57
15.49
23.92
30.56
34.89
36.45
35.01
30.84
24.69
17.65
10.85
5.18
1.25
-0.64
-0.42
1.74
5.37
9.74
13.99
17.38
19.41
19.93
18.96
16.51
12.50
6.94
0.14
-6.98
-13.00
-16.34
-15.84
-11.24
-3.25
6.75
17.16
26.78
34.91
41.34
46.07
49.12
50.53
50.42
49.10
47.00
44.53
41.89
39.08
35.91
32.24
27.88
22.69
16.51
9.33
1.45
-6.46
-13.45
-18.75
-22.12
-24.04
-25.54
-27.71
-31.23
-35.93
-40.90
-44.74
-45.98
-43.48
-36.71
-25.78
-11.40
5.41
23.53
41.82
59.19
74.55
86.91
95.60
100.66
102.91
103.77
104.64
106.21
108.10
109.04
107.60
103.05
95.81
87.33
79.36
73.08
68.53
64.70
60.11
53.56
44.73
34.15
22.90
12.04
2.27
-6.06
-12.71
-17.31
-19.22
-17.82
-12.97
-5.33
3.51
11.37
16.08
16.24
11.64
3.36
-6.69
-16.58
-25.02
-31.89
-38.06
-44.67
-52.33
-60.46
-67.30
-70.61
-68.75
-61.79
-51.68
-41.68
-34.96
-33.11
-35.52
-39.79
-43.02
-43.29
-40.41
-35.43
-29.59
-23.42
-17.08
-11.33
-8.07
-9.43
-15.56
-22.87
-24.69
-14.65
8.79
39.83
67.10
79.24
71.03
46.38
16.00
-8.72
-21.68
-24.34
-23.10
-24.11
-29.10
-34.98
-36.79
-31.59
-20.70
-9.00
-1.99
-2.90
-11.40
-24.21
-37.19
-47.25
-53.19
-55.44
-55.08
-52.91
-49.10
-43.34
-35.34
-25.24
-13.84
-2.62
6.58
11.92
12.20
7.45
-0.90
-10.23
-17.54
-20.57
-18.69
-13.15
-6.54
-1.68
-0.42
-2.99
-8.21
-14.22
-19.36
-22.80
-24.67
-25.75
-27.02
-29.30
-33.05
-38.34
-44.93
-52.24
-59.45
-65.43
-68.98
-69.03
-64.95
-56.75
-45.21
-31.77
-18.28
-6.58
1.81
6.01
5.86
1.86
-4.98
-13.27
-21.39
-27.75
-31.13
-30.99
-27.74
-22.58
-17.12
-12.73
-10.13
-9.23
-9.39
-9.86
-10.15
-10.15
-10.03
-10.05
-10.29
-10.65
-10.76
-10.15
-8.26
-4.61
0.96
8.15
16.15
23.91
30.43
35.22
38.27
40.03
41.01
41.50
41.52
40.93
39.70
38.09
36.63
35.81
35.83
36.33
36.47
35.24
31.95
26.59
19.87
13.00
7.16
3.01
0.44
-1.36
-3.52
-7.01
-12.36
-19.43
-27.56
-35.73
-42.80
-47.68
-49.62
-48.26
-43.79
-36.91
-28.69
-20.33
-12.93
-7.29
-3.81
-2.52
-3.24
-5.66
-9.26
-13.18
-16.21
-17.06
-14.81
-9.41
-1.94
5.74
11.67
14.62
14.44
11.96
8.45
4.98
2.09
-0.21
-2.15
-4.01
-5.96
-8.11
-10.42
-12.61
-14.09
-14.02
-11.53
-6.11
2.13
12.39
23.52
34.34
44.04
52.19
58.67
63.43
66.40
67.60
67.37
66.46
65.81
66.13
67.47
68.99
69.28
66.99
61.50
53.30
43.74
34.52
26.93
21.52
17.96
15.36
12.68
9.02
3.79
-3.25
-11.98
-21.87
-31.99
-41.09
-47.85
-51.15
-50.41
-45.80
-38.16
-28.84
-19.29
-10.74
-3.97
0.79
3.55
4.45
3.58
1.08
-2.67
-6.96
-10.79
-13.29
-14.05
-13.41
-12.33
-11.98
-13.25
-16.33
-20.68
-25.27
-29.00
-31.17
-31.71
-31.16
-30.38
-30.22
-31.14
-33.10
-35.63
-38.02
-39.56
-39.64
-37.73
-33.46
-26.63
-17.37
-6.29
5.67
17.38
27.88
36.63
43.51
48.78
52.85
56.15
58.95
61.34
63.15
63.93
63.03
59.84
54.11
46.15
36.98
28.03
20.68
15.81
13.41
12.67
12.27
10.85
7.43
1.69
-6.05
-14.88
-23.60
-30.91
-35.66
-37.08
-34.90
-29.48
-21.75
-13.04
-4.80
1.73
5.77
7.15
6.14
3.35
-0.54
-4.84
-8.87
-11.84
-12.83
-11.16
-6.71
-0.31
6.38
11.46
13.58
12.59
9.52
6.00
3.46
2.50
2.77
3.32
3.06
1.25
-2.39
-7.66
-13.92
-20.13
-24.96
-27.19
-25.96
-21.09
-13.15
-3.11
7.91
18.94
29.20
38.06
45.04
49.90
52.80
54.28
55.22
56.40
58.28
60.72
63.05
64.33
63.71
60.80
55.81
49.50
42.95
37.16
32.74
29.76
27.73
25.78
22.98
18.52
11.93
3.19
-7.19
-18.11
-27.92
-34.62
-36.36
-31.99
-21.54
-6.33
11.44
29.44
46.02
60.61
73.72
86.37
99.37
112.75
125.65
136.54
143.67
145.63
141.61
131.74
117.27
100.43
84.01
70.52
61.34
56.22
53.56
51.11
46.92
40.02
30.38
18.47
4.81
-10.27
-26.43
-43.00
-58.79
-72.28
-82.05
-87.24
-87.79
-84.45
-78.58
-71.81
-65.70
-61.35
-59.26
-59.27
-60.95
-63.88
-67.99
-73.58
-80.99
-90.24
-100.76
-111.35
-120.52
-126.87
-129.54
-128.37
-123.91
-117.25
-109.64
-102.27
-95.99
-91.25
-88.20
-86.72
-86.59
-87.60
-89.40
-91.51
-93.15
-93.34
-91.10
-85.70
-76.93
-65.19
-51.38
-36.73
-22.44
-9.45
1.65
10.72
17.92
23.68
28.56
33.15
37.85
42.81
47.78
52.19
55.31
56.50
55.48
52.32
47.46
41.58
35.46
30.01
26.20
24.83
26.23
29.98
34.84
39.05
40.96
39.64
35.27
29.04
22.81
18.50
17.66
21.04
28.44
38.72
49.90
59.76
66.54
69.64
69.93
69.22
69.31
70.92
73.25
74.41
72.44
66.41
56.82
45.32
33.81
23.60
15.01
7.66
0.94
-5.49
-11.53
-16.79
-20.83
-23.39
-24.50
-24.53
-24.16
-24.17
-25.25
-27.68
-31.27
-35.49
-39.89
-44.30
-48.82
-53.30
-56.83
-57.59
-53.44
-42.89
-26.09
-5.13
16.66
35.93
50.50
59.84
64.79
66.69
66.60
64.89
61.44
55.99
48.46
39.11
28.35
16.63
4.32
-8.35
-21.19
-34.00
-46.52
-58.37
-69.21
-78.79
-87.21
-94.80
-102.04
-109.18
-116.02
-121.71
-125.06
-124.92
-120.80
-113.14
-103.23
-92.77
-83.21
-75.30
-68.94
-63.46
-58.00
-51.99
-45.32
-38.36
-31.74
-26.17
-22.26
-20.43
-20.90
-23.67
-28.48
-34.80
-41.82
-48.47
-53.69
-56.60
-56.86
-54.86
-51.62
-48.47
-46.68
-47.08
-49.86
-54.61
-60.38
-65.80
-69.25
-69.08
-64.06
-53.79
-38.90
-21.09
-2.59
14.37
28.07
37.57
42.70
43.88
41.99
38.13
33.61
29.71
27.48
27.48
29.65
33.25
37.10
39.86
40.52
38.66
34.64
29.48
24.50
20.83
19.01
18.82
19.39
19.55
18.25
14.92
9.66
3.27
-2.91
-7.37
-8.75
-6.23
0.25
10.07
22.04
34.81
47.12
58.01
66.89
73.46
77.68
79.67
79.78
78.57
76.70
74.84
73.37
72.19
70.63
67.66
62.28
54.00
43.13
30.75
18.34
7.26
-1.70
-8.41
-13.29
-17.03
-20.42
-24.24
-29.08
-35.31
-42.69
-50.26
-56.39
-59.26
-57.52
-50.86
-40.30
-27.86
-15.83
-5.97
1.01
5.53
8.68
11.70
15.43
19.98
24.90
29.34
32.43
33.49
32.19
28.66
23.52
17.73
12.34
8.22
5.75
4.80
4.87
5.33
5.56
4.97
2.97
-1.10
-7.74
-17.03
-28.35
-40.27
-50.83
-58.07
-60.58
-57.80
-50.07
-38.39
-24.08
-8.50
7.18
21.98
35.15
46.12
54.54
60.34
63.80
65.46
65.96
65.86
65.38
64.42
62.54
59.25
54.16
47.33
39.24
30.74
22.76
15.96
10.50
6.01
1.76
-3.11
-9.30
-17.24
-27.00
-38.25
-50.18
-61.49
-70.49
-75.49
-75.28
-69.66
-59.61
-46.94
-33.73
-21.56
-11.17
-2.52
4.81
11.18
16.70
21.30
24.98
27.90
30.36
32.54
34.34
35.37
35.17
33.50
30.51
26.76
22.93
19.53
16.71
14.18
11.46
8.08
3.73
-1.65
-7.97
-15.00
-22.24
-28.89
-33.78
-35.52
-32.94
-25.53
-13.73
1.17
17.34
32.95
46.63
57.62
65.76
71.31
74.81
76.89
78.10
78.75
78.85
78.13
76.23
72.94
68.33
62.70
56.54
50.29
44.36
39.02
34.49
30.84
27.95
25.45
22.80
19.38
14.73
8.62
1.12
-7.37
-16.14
-24.21
-30.42
-33.72
-33.46
-29.61
-22.81
-14.17
-4.87
4.11
12.10
18.68
23.56
26.50
27.55
27.16
26.26
25.89
26.80
28.94
31.39
32.70
31.55
27.35
20.55
12.42
4.55
-1.69
-5.49
-6.63
-5.37
-2.33
1.67
5.65
8.66
10.03
9.66
8.15
6.80
7.22
10.75
18.07
28.97
42.47
57.23
71.87
85.41
97.33
107.46
115.74
122.11
126.40
128.33
127.54
123.52
115.90
104.76
90.82
75.37
60.13
46.80
36.53
29.43
24.36
19.45
12.93
3.59
-9.12
-24.96
-43.21
-62.92
-83.26
-103.70
-123.58
-141.66
-156.20
-165.64
-169.07
-166.69
-159.99
-150.26
-139.94
-131.95
-127.80
-126.46
-125.65
-123.40
-118.94
-112.65
-105.19
-97.09
-88.21
-78.84
-68.27
-56.96
-46.29
-37.53
-31.17
-26.71
-23.29
-19.92
-15.85
-10.58
-4.17
3.03
10.86
19.34
28.28
36.70
43.21
46.56
46.39
43.21
38.44
34.19
32.44
34.38
39.55
46.57
53.90
60.26
64.48
65.38
62.08
54.30
42.66
28.14
12.18
-3.77
-17.69
-27.68
-34.12
-39.30
-44.97
-50.73
-55.41
-57.96
-58.11
-56.61
-54.45
-52.39
-50.29
-49.28
-47.64
-44.74
-40.74
-36.19
-31.87
-28.36
-25.93
-24.39
-23.09
-21.09
-18.31
-15.31
-11.20
-6.50
-1.97
1.77
4.64
7.05
9.78
12.94
16.21
18.92
20.00
18.80
15.17
9.55
2.91
-3.36
-8.16
-10.63
-10.24
-7.17
-1.92
4.61
11.47
17.69
22.70
26.19
28.29
29.47
30.09
30.37
30.23
29.34
27.37
24.27
20.41
16.50
13.36
11.55
11.23
12.25
14.36
17.36
21.11
25.43
29.76
33.19
34.44
32.46
26.74
17.72
6.61
-4.94
-15.44
-23.92
-30.15
-34.49
-37.65
-40.49
-43.82
-48.25
-54.09
-61.27
-69.36
-77.55
-85.03
-91.10
-95.48
-98.34
-100.26
-102.08
-104.79
-109.27
-115.93
-124.41
-133.31
-140.35
-142.85
-138.53
-126.34
-106.90
-82.35
-55.82
-30.51
-8.98
7.36
18.29
24.57
27.46
28.37
28.49
28.61
29.02
29.63
30.03
29.69
28.08
24.73
19.39
12.09
3.32
-6.05
-14.81
-21.84
-26.40
-28.36
-28.28
-27.17
-26.27
-26.55
-28.43
-31.51
-34.49
-35.49
-32.55
-24.43
-11.13
5.86
24.00
40.53
53.44
61.94
66.55
68.50
69.07
69.09
68.87
68.26
67.05
65.10
62.36
58.80
54.25
48.48
41.25
32.54
22.72
12.46
2.67
-5.81
-12.47
-17.33
-20.98
-24.40
-28.63
-34.42
-42.04
-51.17
-61.02
-70.50
-78.40
-83.51
-84.74
-81.24
-72.60
-59.04
-41.54
-21.71
-1.49
17.32
33.40
46.15
55.52
61.88
65.71
67.46
67.50
66.14
63.68
60.42
56.64
52.58
48.41
44.26
40.30
36.74
33.85
31.91
31.06
31.24
31.99
32.54
32.01
29.76
25.71
20.45
15.03
10.51
7.54
6.11
5.74
5.90
6.39
7.54
10.00
14.43
21.05
29.49
38.86
47.96
55.60
60.82
62.96
61.68
56.96
49.13
38.92
27.44
15.98
5.86
-2.03
-7.40
-10.70
-12.89
-15.02
-17.80
-21.42
-25.56
-29.64
-33.20
-36.01
-38.11
-39.59
-40.47
-40.57
-39.62
-37.26
-33.16
-26.99
-18.46
-7.49
5.67
20.26
35.04
48.52
59.37
66.71
70.32
70.57
68.13
63.77
58.13
51.73
45.06
38.58
32.74
27.90
24.18
21.47
19.55
18.10
16.95
16.07
15.66
15.97
17.26
19.66
23.04
26.93
30.56
32.95
33.16
30.64
25.51
18.81
12.26
7.94
7.62
12.13
21.11
33.09
45.93
57.57
66.56
72.25
74.68
74.21
71.22
66.01
58.92
50.47
41.38
32.44
24.20
16.72
9.63
2.33
-5.60
-14.16
-22.90
-31.14
-38.35
-44.34
-49.28
-53.48
-57.17
-60.40
-63.15
-65.35
-66.90
-67.60
-67.05
-64.64
-59.79
-52.24
-42.20
-30.34
-17.66
-5.18
6.19
15.77
22.96
27.34
28.64
26.93
22.58
16.34
9.11
1.74
-5.02
-10.71
-15.13
-18.27
-20.22
-21.05
-20.73
-19.22
-16.48
-12.61
-7.89
-2.79
2.06
5.93
8.02
7.59
4.17
-2.05
-9.98
-17.69
-22.79
-23.27
-18.20
-8.21
4.78
18.18
29.72
38.02
42.83
44.63
44.13
41.89
38.26
33.54
28.27
23.23
19.19
16.55
15.00
13.63
11.28
7.09
0.94
-6.54
-14.32
-21.33
-26.86
-30.51
-32.11
-31.56
-29.01
-25.07
-20.95
-18.31
-18.58
-22.30
-28.66
-35.60
-40.57
-41.45
-37.30
-28.62
-17.06
-4.71
6.53
15.36
21.18
23.90
23.72
21.04
16.43
10.66
4.68
-0.53
-4.20
-5.98
-6.09
-5.11
-3.83
-2.81
-2.18
-1.55
-0.23
2.44
6.70
12.11
17.64
21.87
23.53
21.83
16.74
8.93
-0.52
-10.41
-19.70
-27.60
-33.49
-36.94
-37.63
-35.49
-30.70
-23.83
-15.69
-7.22
0.69
7.34
12.35
15.58
17.07
16.93
15.23
12.06
7.52
1.96
-4.05
-9.74
-14.33
-17.33
-18.59
-18.29
-16.56
-13.45
-8.89
-2.93
4.03
11.10
16.90
19.98
19.27
14.61
6.83
-2.51
-11.43
-18.08
-21.05
-19.68
-14.03
-4.79
7.19
20.82
34.90
48.28
60.16
70.27
78.84
86.38
93.40
100.66
108.37
116.02
122.67
127.50
130.12
130.52
128.74
124.75
119.69
114.52
109.74
105.46
101.97
99.79
99.27
100.14
101.31
102.95
104.58
104.68
101.25
92.99
80.07
63.90
46.41
29.58
17.46
12.69
15.32
22.96
32.48
41.50
48.84
54.52
44.88
14.79
-29.95
-75.88
-112.12
-135.79
-150.04
-159.78
-168.88
-179.02
-187.51
-191.36
-189.32
-182.52
-173.21
-163.37
-154.22
-146.34
-139.84
-132.81
-123.93
-113.15
-101.54
-89.99
-78.57
-66.86
-54.73
-42.71
-30.81
-19.61
-10.23
-3.87
-0.92
-1.18
-3.70
-7.33
-11.12
-13.88
-15.10
-14.91
-13.98
-12.86
-11.85
-10.82
-9.58
-8.00
-5.93
-3.53
-1.05
1.35
3.66
6.07
8.81
12.04
15.63
19.42
22.94
25.90
28.11
29.52
30.03
29.54
27.87
24.64
21.07
17.75
15.14
13.43
12.51
12.01
11.50
10.71
9.69
8.82
8.37
8.68
9.97
12.30
15.56
19.50
23.75
27.85
31.37
33.72
34.56
33.78
31.45
27.87
23.41
18.51
13.53
8.76
4.21
-0.20
-4.54
-8.77
-12.78
-16.40
-19.55
-22.31
-24.86
-27.38
-29.85
-31.99
-33.41
-33.86
-33.43
-32.51
-31.72
-31.58
-32.38
-33.96
-35.82
-37.24
-37.50
-36.05
-32.63
-27.35
-20.60
-13.00
-5.22
2.22
9.01
15.05
20.37
24.96
28.70
31.42
32.94
33.20
32.33
30.57
28.18
25.34
22.13
18.55
14.62
10.42
6.02
1.51
-3.05
-7.58
-12.03
-16.29
-20.31
-24.08
-27.71
-31.26
-34.74
-37.99
-40.82
-43.14
-45.21
-47.64
-51.17
-56.42
-63.50
-71.83
-80.20
-87.03
-90.76
-90.18
-84.66
-74.22
-59.46
-41.49
-21.71
-1.64
17.38
34.34
48.74
60.63
70.39
78.46
85.10
90.24
93.46
94.30
92.47
88.03
81.40
73.17
63.87
53.80
42.97
31.30
18.79
5.71
-7.43
-20.01
-31.57
-41.95
-51.27
-59.89
-68.11
-76.08
-83.70
-90.57
-96.18
-99.96
-101.48
-100.55
-97.19
-91.62
-84.21
-75.39
-65.65
-55.54
-45.66
-36.64
-29.03
-23.29
-19.66
-18.18
-18.71
-20.94
-24.43
-28.60
-32.85
-36.59
-39.39
-41.11
-41.87
-41.99
-41.91
-42.05
-42.68
-43.94
-45.79
-48.09
-50.73
-53.70
-57.15
-61.28
-66.29
-72.17
-78.72
-85.46
-91.65
-96.29
-98.21
-96.25
-89.49
-77.62
-61.21
-41.63
-20.83
-0.74
17.16
32.13
44.13
53.44
60.40
65.11
67.54
67.63
65.63
62.08
57.79
53.53
49.87
46.98
44.71
42.71
40.66
38.43
36.00
33.39
30.49
27.08
22.90
17.79
11.75
4.90
-2.69
-11.05
-20.25
-30.04
-39.58
-47.37
-51.50
-50.30
-42.93
-29.77
-12.34
7.27
26.98
45.24
61.08
74.09
84.08
90.97
94.76
95.69
94.27
91.33
87.76
84.30
81.31
78.73
76.26
73.59
70.70
67.84
65.42
63.74
62.82
62.30
61.66
60.43
58.36
55.46
51.88
47.78
43.30
38.56
33.74
28.95
24.27
19.57
14.61
9.18
3.26
-2.91
-8.87
-14.25
-18.88
-22.95
-26.98
-31.58
-37.21
-43.91
-51.24
-58.17
-63.31
-65.06
-62.07
-53.54
-39.50
-20.81
0.95
23.89
46.20
66.43
83.66
97.42
107.52
113.91
116.67
116.10
112.88
108.01
102.59
97.54
93.17
89.23
85.10
80.21
74.41
68.06
61.80
56.22
51.50
47.29
42.92
37.71
31.31
23.82
15.71
7.58
-0.06
-6.79
-12.40
-16.75
-19.76
-21.57
-22.51
-23.12
-24.03
-25.58
-27.67
-29.70
-30.80
-30.17
-27.39
-22.54
-16.17
-8.99
-1.80
4.76
10.22
14.26
16.71
17.54
16.87
15.02
12.40
9.45
6.53
3.83
1.37
-0.91
-3.07
-4.99
-6.48
-7.33
-7.44
-7.01
-6.40
-6.05
-6.20
-6.90
-8.02
-9.40
-11.01
-12.96
-15.48
-18.76
-22.84
-27.57
-32.69
-37.85
-42.73
-47.00
-50.39
-52.59
-53.33
-52.31
-49.36
-44.54
-38.17
-30.79
-23.08
-15.66
-9.01
-3.44
0.87
3.80
5.33
5.49
4.48
2.57
0.13
-2.48
-4.86
-6.68
-7.66
-7.64
-6.58
-4.65
-2.14
0.57
2.97
4.53
4.75
3.39
0.74
-2.23
-4.03
-3.09
1.46
9.43
19.39
29.24
36.86
40.81
40.66
37.02
31.34
25.62
21.98
22.26
27.58
37.85
51.78
67.21
81.77
93.53
101.43
105.13
104.80
100.65
92.76
81.19
66.15
48.14
28.07
7.01
-13.98
-34.07
-52.79
-69.97
-85.58
-99.49
-111.36
-120.67
-127.04
-130.55
-131.99
-132.69
-134.01
-136.69
-140.43
-144.04
-146.08
-145.72
-143.28
-140.22
-138.54
-139.94
-145.13
-153.69
-164.23
-174.82
-183.36
-187.85
-186.59
-178.63
-164.17
-144.83
-123.53
-103.68
-88.19
-78.50
-74.23
-73.52
-73.86
-73.15
-70.30
-65.46
-59.52
-53.48
-47.94
-42.92
-38.08
-33.13
-28.15
-23.66
-20.44
-19.13
-19.96
-22.59
-26.39
-30.67
-35.07
-39.59
-44.50
-50.12
-56.73
-64.34
-72.89
-82.19
-91.95
-101.68
-110.39
-116.63
-118.58
-114.59
-103.68
-85.92
-62.45
-35.22
-6.60
21.06
45.75
65.93
80.73
90.05
94.55
95.48
94.41
92.77
91.49
90.88
90.63
90.00
88.14
84.31
78.00
69.16
58.11
45.57
32.42
19.53
7.52
-3.44
-13.70
-24.07
-35.44
-48.23
-62.00
-75.18
-85.42
-90.20
-87.67
-77.16
-59.24
-35.34
-7.27
23.03
53.57
82.27
107.07
126.25
138.96
145.39
146.78
144.78
140.94
136.28
131.21
125.70
119.61
112.87
105.53
97.80
90.04
82.75
76.51
71.78
68.57
66.29
63.65
58.92
50.47
37.38
20.05
0.43
-18.28
-32.32
-38.47
-34.91
-21.81
-1.21
23.62
49.15
72.42
91.65
106.32
116.89
124.31
129.48
132.94
134.88
135.27
134.03
131.14
126.58
120.27
112.07
102.05
90.71
79.06
68.41
59.91
54.03
50.23
47.09
42.82
35.75
24.81
9.68
-9.25
-30.86
-53.26
-73.89
-89.69
-97.72
-96.08
-84.64
-65.25
-41.24
-16.30
6.67
26.26
42.49
56.11
67.79
77.56
84.91
89.19
90.00
87.47
82.06
74.35
64.80
53.81
41.88
29.68
18.15
8.17
0.29
-5.56
-10.17
-14.76
-20.62
-28.60
-38.84
-50.73
-63.01
-74.15
-82.61
-87.13
-86.87
-81.63
-71.90
-58.84
-43.97
-28.74
-14.09
-0.16
13.49
27.45
41.96
56.46
69.72
80.23
86.74
88.75
86.71
81.84
75.76
69.92
65.16
61.47
58.10
53.95
48.16
40.49
31.49
22.19
13.60
6.23
-0.22
-6.87
-15.29
-26.98
-42.78
-62.22
-83.14
-101.77
-113.56
-114.48
-102.59
-79.07
-48.31
-16.58
9.91
27.02
33.82
32.31
26.11
18.85
12.89
9.11
7.35
7.19
8.36
10.75
13.98
17.18
19.12
18.78
15.97
11.60
7.36
4.94
5.17
7.46
9.93
9.97
5.11
-6.06
-23.39
-45.00
-67.65
-87.39
-100.43
-104.13
-97.62
-82.17
-60.80
-37.51
-16.14
0.60
11.62
17.51
19.82
20.44
20.84
21.82
23.53
25.69
27.91
29.85
31.34
32.32
32.78
32.70
32.07
30.94
29.46
28.02
27.12
27.27
28.75
31.42
34.62
37.25
38.02
35.65
29.05
17.56
1.16
-18.97
-40.14
-58.25
-68.64
-67.57
-53.86
-29.86
-1.03
25.67
44.06
50.81
46.13
33.31
17.09
1.95
-9.16
-15.16
-16.55
-14.81
-11.72
-8.97
-7.93
-9.52
-14.11
-21.37
-30.28
-39.32
-46.95
-52.12
-54.90
-56.66
-59.56
-65.56
-75.18
-86.72
-96.47
-99.76
-92.70
-73.89
-45.25
-11.58
20.99
46.95
63.03
68.93
66.96
61.04
55.09
51.78
51.99
55.07
59.36
63.03
64.49
62.85
58.31
51.55
43.30
34.23
25.03
16.42
9.00
2.96
-1.78
-4.54
-5.10
-4.06
-2.84
-3.08
-5.98
-12.03
-20.94
-31.49
-40.15
-43.61
-40.02
-29.39
-12.85
8.06
31.51
55.37
77.59
98.50
118.20
135.93
150.23
160.25
166.51
170.38
173.09
162.36
131.78
84.11
30.28
-18.62
-56.51
-81.91
-96.05
-102.21
-104.07
-101.79
-95.20
-85.10
-73.60
-63.24
-56.22
-53.34
-55.28
-62.06
-71.52
-81.51
-90.59
-97.99
-102.91
-104.28
-101.20
-93.74
-82.79
-68.77
-52.46
-34.89
-17.27
-0.55
14.53
27.16
36.31
41.12
41.72
38.82
33.48
26.79
19.79
13.25
7.51
2.42
-2.43
-7.13
-11.58
-15.44
-18.33
-19.94
-20.27
-19.67
-18.82
-18.60
-19.93
-23.68
-30.51
-40.64
-53.46
-67.28
-79.37
-86.52
-86.03
-76.71
-59.59
-37.76
-15.44
3.37
16.25
22.92
25.02
25.12
25.56
27.53
30.84
34.31
36.46
36.24
33.43
28.66
23.01
17.55
12.85
8.91
5.30
1.48
-2.74
-7.06
-10.80
-13.28
-14.25
-14.16
-14.03
-15.03
-18.08
-23.50
-31.01
-39.90
-49.17
-57.77
-64.55
-68.40
-68.44
-64.31
-56.24
-45.17
-32.39
-19.26
-6.88
4.09
13.32
20.68
26.17
29.89
32.03
32.88
32.75
31.85
30.23
27.75
24.28
19.82
14.71
9.50
4.83
1.03
-2.00
-4.81
-8.10
-12.32
-17.40
-22.81
-27.81
-32.00
-35.62
-39.48
-44.57
-51.39
-59.41
-66.86
-71.06
-69.24
-59.49
-41.58
-17.23
10.17
36.45
57.64
70.99
75.54
72.17
63.18
51.67
40.63
32.32
27.86
27.16
29.17
32.34
35.05
36.04
34.55
30.43
23.99
15.95
7.31
-0.84
-7.52
-12.12
-14.56
-15.34
-15.38
-15.73
-17.27
-20.39
-24.96
-30.35
-35.65
-39.85
-42.09
-41.68
-38.32
-32.06
-23.37
-12.99
-1.84
9.20
19.38
28.15
35.21
40.54
44.34
46.99
48.89
50.39
51.67
52.80
53.83
54.87
56.13
57.91
60.38
63.59
67.18
70.40
72.03
70.55
64.48
52.86
35.79
14.67
-8.01
-29.36
-47.04
-60.05
-69.07
-75.98
-82.83
-90.70
-99.10
-106.09
-109.21
-106.67
-98.20
-85.18
-70.00
-55.01
-41.58
-29.86
-19.00
-7.99
3.67
15.54
26.24
34.02
37.30
35.42
28.89
19.46
9.70
2.39
-0.05
3.80
14.08
29.32
46.46
61.21
69.05
66.79
54.26
35.07
15.95
4.37
5.39
19.15
40.46
60.79
71.91
69.52
54.95
34.24
15.26
4.33
4.09
13.43
29.01
47.38
66.39
85.44
104.55
123.16
139.36
150.16
152.65
145.19
128.27
104.07
75.45
44.62
12.51
-20.78
-55.01
-88.60
-118.55
-141.11
-153.41
-154.75
-147.13
-134.53
-121.51
-111.66
-106.72
-106.53
-109.65
-114.35
-119.36
-124.15
-128.67
-132.77
-135.74
-136.26
-132.73
-123.96
-109.62
-90.34
-67.36
-42.06
-15.71
10.57
35.62
58.19
77.01
91.09
99.89
103.47
102.32
97.25
89.30
79.66
69.56
60.11
52.06
45.74
41.08
37.64
34.92
32.36
29.46
25.89
21.56
16.68
11.69
7.06
2.92
-1.10
-5.84
-12.15
-20.50
-30.67
-41.87
-53.02
-63.03
-70.78
-75.06
-74.52
-68.05
-55.59
-38.72
-20.72
-5.75
2.63
2.76
-4.55
-16.50
-29.55
-40.72
-48.28
-51.87
-52.01
-49.65
-45.75
-41.24
-36.92
-33.44
-31.24
-30.46
-30.92
-32.18
-33.63
-34.60
-34.63
-33.60
-31.96
-30.66
-30.84
-33.39
-38.43
-45.06
-51.48
-55.57
-55.59
-50.81
-41.84
-30.39
-18.72
-8.74
-1.37
3.80
8.18
13.48
20.96
30.88
42.50
54.51
65.57
74.77
81.75
86.49
89.14
89.86
88.95
86.97
84.85
83.60
83.88
85.58
87.63
88.17
85.18
77.12
63.46
44.77
22.55
-1.24
-24.46
-45.10
-61.47
-72.31
-77.02
-75.81
-69.67
-60.10
-48.71
-36.91
-25.66
-15.54
-6.82
0.43
6.27
10.94
14.67
17.55
19.47
20.06
18.97
16.14
11.96
7.23
2.89
-0.39
-2.47
-3.79
-5.19
-7.55
-11.41
-16.70
-22.73
-28.35
-32.37
-34.02
-33.31
-31.12
-29.04
-28.81
-31.80
-38.38
-47.70
-57.62
-65.27
-67.74
-62.98
-50.43
-31.22
-7.84
16.56
39.08
57.68
71.42
80.35
85.19
86.90
86.57
85.29
84.03
83.52
83.95
84.69
84.36
81.17
73.61
61.22
45.09
27.71
12.17
1.02
-4.78
-6.22
-5.77
-6.25
-9.64
-16.25
-24.86
-33.42
-40.02
-43.62
-44.08
-41.74
-36.84
-29.19
-18.34
-4.13
12.85
31.19
48.97
64.42
76.38
84.53
89.18
90.78
89.58
85.56
78.68
69.25
58.30
47.61
39.26
34.96
35.21
38.85
43.25
45.15
41.82
32.27
17.58
0.54
-15.49
-27.86
-35.45
-38.72
-39.16
-38.46
-37.90
-38.13
-39.42
-41.82
-45.18
-49.04
-52.32
-53.55
-51.16
-44.27
-33.16
-19.41
-5.31
6.86
15.65
20.67
22.36
21.36
18.17
13.10
6.65
-0.03
-5.32
-7.63
-6.40
-2.67
1.13
2.20
-1.27
-9.24
-19.80
-30.18
-38.00
-42.18
-43.16
-42.26
-40.96
-40.29
-40.67
-42.14
-44.57
-47.69
-51.00
-53.57
-54.14
-51.39
-44.50
-33.59
-19.81
-5.07
8.64
19.85
28.05
33.66
37.66
40.99
44.14
46.94
48.70
48.62
46.18
41.40
34.89
27.65
20.73
14.91
10.46
7.22
4.75
2.75
1.15
0.18
0.12
0.96
2.21
2.95
2.17
-0.85
-6.22
-13.29
-20.86
-27.42
-31.53
-32.07
-28.64
-21.77
-13.01
-4.74
0.53
1.06
-3.42
-11.62
-21.18
-29.77
-36.06
-40.33
-44.20
-49.77
-58.60
-71.06
-86.15
-101.80
-115.57
-125.32
-129.69
-128.38
-122.13
-112.39
-101.16
-90.64
-82.66
-78.27
-77.46
-79.19
-81.59
-82.61
-80.38
-74.15
-64.51
-52.77
-40.21
-27.40
-14.15
0.27
16.65
35.96
58.12
82.05
106.21
129.33
150.55
169.29
185.09
197.68
207.93
216.31
222.83
227.44
230.52
232.68
234.22
234.78
233.34
229.57
222.24
209.48
189.97
163.79
132.45
98.15
63.05
21.62
-24.56
-68.59
-103.07
-124.96
-135.56
-137.87
-134.90
-128.94
-121.60
-112.71
-102.56
-92.13
-82.58
-74.58
-68.12
-62.84
-58.24
-53.68
-47.71
-39.73
-30.23
-20.27
-10.73
-2.04
5.51
11.65
16.29
19.41
20.86
20.50
18.57
15.87
13.56
12.65
13.53
16.00
19.48
23.02
25.53
26.22
24.98
22.49
20.00
18.98
20.64
25.45
32.88
41.54
49.54
55.09
57.29
56.23
52.70
48.80
46.04
45.05
45.13
44.36
40.10
30.36
14.63
-5.93
-29.06
-52.31
-73.65
-91.82
-106.49
-118.45
-128.41
-136.56
-142.61
-146.13
-146.83
-144.57
-139.53
-132.36
-124.89
-118.62
-114.10
-111.04
-108.82
-106.66
-103.70
-99.04
-91.98
-83.10
-72.64
-60.38
-46.24
-31.13
-16.49
-3.68
6.74
21.62
43.17
68.74
92.88
110.53
118.16
114.51
100.96
81.34
60.76
42.87
28.67
18.54
11.92
7.12
2.59
-2.34
-7.41
-11.92
-16.36
-21.51
-28.44
-36.05
-44.61
-54.26
-64.26
-73.07
-78.79
-80.54
-78.26
-72.47
-64.18
-54.87
-45.38
-35.84
-26.04
-16.07
-6.89
0.14
3.97
4.25
1.14
-4.40
-11.10
-17.80
-23.75
-28.73
-32.75
-35.80
-37.91
-39.34
-40.33
-41.04
-41.53
-41.79
-41.88
-42.17
-43.19
-45.52
-49.45
-54.52
-59.54
-62.86
-62.95
-58.84
-50.39
-38.12
-22.91
-5.66
12.87
31.95
50.72
68.13
83.00
94.28
101.19
103.36
100.85
94.19
84.32
72.57
60.34
48.83
38.52
29.21
20.12
10.61
0.68
-8.83
-16.41
-20.62
-20.84
-17.58
-12.50
-7.89
-6.08
-8.92
-17.16
-29.96
-44.87
-58.19
-65.82
-64.45
-52.62
-31.20
-3.12
27.63
57.16
82.57
102.27
115.71
122.82
123.77
118.95
109.32
96.62
83.25
71.62
63.36
58.84
56.86
55.38
52.47
46.89
38.43
27.53
14.86
1.21
-12.59
-25.63
-37.23
-47.32
-56.60
-66.08
-76.27
-86.21
-93.38
-94.50
-87.04
-70.55
-46.98
-19.94
6.73
30.15
48.82
62.28
70.49
73.44
71.28
64.69
54.95
43.96
33.72
25.74
20.72
18.39
17.72
17.37
16.25
13.90
10.75
7.90
6.60
7.62
10.66
14.28
16.31
14.66
8.17
-2.73
-16.03
-28.56
-36.90
-38.35
-31.71
-17.52
2.07
24.02
45.20
63.12
76.31
84.30
87.34
86.08
81.36
74.18
65.71
57.24
49.84
44.10
39.85
36.33
32.52
27.56
21.10
13.27
4.54
-4.45
-13.01
-20.37
-25.85
-29.11
-30.43
-30.80
-31.56
-33.65
-36.99
-40.21
-41.08
-37.50
-28.43
-14.31
3.16
21.67
39.20
54.35
66.41
74.99
79.78
80.47
77.06
70.00
60.36
49.60
39.11
29.86
22.18
15.85
10.39
5.33
0.38
-4.51
-9.20
-13.44
-16.99
-19.73
-21.89
-24.14
-27.47
-32.86
-40.67
-50.22
-59.67
-66.38
-67.78
-62.28
-49.84
-32.04
-11.56
8.76
26.60
40.69
50.75
57.05
60.09
60.27
58.02
53.93
48.87
43.89
39.85
37.06
35.09
33.08
30.14
25.88
20.49
14.52
8.39
2.09
-4.66
-12.02
-19.65
-26.61
-31.82
-34.58
-34.89
-33.27
-30.20
-25.59
-18.76
-8.96
3.94
19.01
34.45
48.31
59.25
66.85
71.45
73.51
73.21
70.33
64.55
55.93
45.11
33.26
21.71
11.57
3.49
-2.31
-5.93
-7.56
-7.52
-6.23
-4.29
-2.42
-1.23
-1.10
-2.03
-3.83
-6.32
-9.57
-13.72
-18.72
-23.83
-27.54
-27.89
-23.15
-12.59
3.15
22.27
42.41
61.42
77.73
90.34
98.52
101.67
99.34
91.66
79.58
65.00
50.33
37.79
28.76
23.33
20.49
18.67
16.39
12.82
7.79
1.52
-5.74
-13.95
-23.10
-32.92
-42.63
-51.18
-57.74
-62.27
-65.63
-69.08
-73.35
-77.94
-81.09
-80.62
-75.14
-64.86
-51.65
-38.16
-26.63
-18.02
-12.09
-7.97
-5.08
-3.62
-4.41
-8.21
-15.07
-24.01
-33.28
-41.05
-46.11
-48.29
-48.42
-47.85
-47.85
-49.08
-51.50
-54.42
-56.95
-58.43
-58.49
-57.22
-55.07
-52.81
-51.50
-52.18
-55.31
-60.22
-64.99
-66.95
-63.64
-53.94
-38.60
-20.00
-1.05
15.87
29.57
39.98
47.48
52.33
54.48
53.91
51.06
46.98
43.04
40.29
39.14
39.14
39.21
38.28
35.75
31.60
26.37
20.64
14.75
8.97
3.58
-0.83
-3.51
-4.00
-2.72
-1.07
-0.96
-3.77
-9.48
-16.64
-23.01
-26.69
-26.94
-24.32
-20.02
-15.09
-9.99
-4.72
0.62
5.52
9.00
10.10
8.35
4.03
-2.00
-8.66
-14.98
-20.35
-24.48
-27.34
-29.20
-30.32
-31.03
-31.46
-31.57
-31.14
-29.96
-28.06
-25.90
-24.26
-24.06
-25.93
-29.88
-35.33
-41.24
-46.67
-51.04
-54.22
-56.10
-56.24
-53.75
-47.63
-37.42
-23.65
-8.00
7.30
20.26
29.86
36.24
40.29
43.00
44.84
45.72
45.28
43.45
40.76
38.06
35.97
34.35
32.32
28.74
23.26
16.77
11.24
8.65
9.69
13.20
16.57
17.10
13.29
5.47
-4.65
-15.00
-24.10
-31.33
-36.49
-39.29
-39.19
-35.67
-28.76
-19.41
-9.29
-0.18
6.63
10.77
12.65
13.07
12.84
12.46
12.14
11.81
11.29
10.38
8.87
6.67
3.89
0.90
-1.79
-3.69
-4.60
-4.78
-4.75
-5.06
-6.01
-7.48
-9.02
-10.22
-11.07
-12.20
-14.67
-19.32
-26.11
-33.68
-39.63
-41.37
-37.15
-26.86
-12.13
4.34
19.81
32.49
41.94
48.82
54.11
58.51
62.06
64.38
64.99
63.64
60.36
55.28
48.36
39.30
28.05
15.43
3.33
-5.62
-9.24
-7.03
-0.69
6.35
10.37
9.01
2.09
-8.60
-20.46
-31.46
-40.88
-49.11
-56.77
-63.87
-69.45
-71.87
-69.67
-62.28
-50.42
-35.82
-20.70
-6.90
4.55
13.54
20.61
26.40
31.27
35.19
37.76
38.61
37.54
34.72
30.61
25.89
21.34
17.68
15.47
14.96
16.00
17.99
19.97
20.92
20.16
17.54
13.55
8.98
4.51
0.35
-3.76
-8.33
-13.65
-19.30
-24.21
-26.88
-25.96
-20.89
-12.06
-0.74
11.40
22.79
32.31
39.41
43.99
46.27
46.52
45.01
41.97
37.52
31.76
24.84
17.11
9.29
2.35
-2.70
-5.31
-5.73
-5.11
-5.11
-7.36
-12.88
-21.80
-33.41
-46.40
-59.25
-70.64
-79.70
-86.20
-90.30
-92.26
-92.00
-89.11
-83.08
-73.83
-61.97
-48.79
-35.65
-23.44
-12.26
-1.58
9.07
19.68
29.58
37.81
43.75
47.30
48.97
49.53
49.66
49.84
50.27
50.81
50.89
49.73
46.42
40.48
32.29
23.11
14.78
8.92
6.12
5.74
6.30
6.20
4.50
1.23
-2.83
-6.49
-8.62
-8.40
-5.33
0.68
9.26
19.61
30.62
41.03
49.73
55.89
58.98
58.78
55.46
49.69
42.71
35.99
30.55
26.51
22.96
18.63
12.70
5.39
-2.10
-8.39
-12.84
-16.07
-19.65
-25.13
-33.09
-42.81
-52.71
-61.28
-67.87
-72.92
-77.36
-81.92
-86.50
-90.24
-91.73
-89.74
-83.69
-73.79
-61.09
-47.00
-32.95
-20.02
-8.74
0.89
9.20
16.59
23.20
28.81
32.92
35.03
35.03
33.39
31.10
29.27
28.62
29.09
29.77
29.33
26.56
20.99
13.13
4.40
-3.43
-8.86
-11.21
-10.86
-8.98
-7.03
-6.26
-7.28
-10.10
-14.33
-19.42
-24.54
-28.55
-29.92
-26.95
-18.59
-5.02
11.86
28.97
43.08
51.97
55.02
53.12
47.82
40.53
32.06
22.75
12.97
3.55
-4.31
-9.56
-11.90
-12.08
-11.74
-12.60
-15.74
-21.11
-27.67
-33.94
-38.78
-41.87
-43.73
-45.30
-47.28
-49.79
-52.37
-54.40
-55.62
-56.28
-56.90
-57.81
-58.62
-58.05
-54.28
-45.69
-31.58
-12.72
8.86
30.47
49.64
64.78
75.44
82.18
86.11
88.38
89.81
90.81
91.39
91.33
90.35
88.35
85.47
82.15
79.01
76.65
75.40
75.09
75.10
74.55
72.62
68.88
63.44
56.84
49.82
43.02
36.75
30.99
25.50
20.03
14.53
9.18
4.38
0.68
-1.43
-1.70
-0.26
2.27
4.88
6.47
6.19
3.85
0.01
-4.19
-7.60
-9.60
-10.45
-11.22
-13.28
-17.65
-24.57
-33.37
-42.86
-51.80
-59.35
-65.18
-69.28
-71.79
-72.74
-72.16
-70.16
-67.04
-63.24
-59.25
-55.47
-52.12
-49.33
-47.07
-45.25
-43.68
-42.04
-39.91
-36.81
-32.40
-26.45
-18.93
-9.95
0.30
11.60
23.60
35.84
47.58
57.81
65.40
69.35
69.20
65.30
58.91
51.88
46.09
42.93
42.93
45.82
50.78
56.87
63.30
69.43
74.78
78.92
81.56
82.68
82.61
81.91
81.17
80.66
79.97
78.15
73.88
66.02
54.03
38.25
19.93
0.90
-16.88
-31.73
-42.56
-49.01
-51.48
-51.01
-49.19
-47.94
-49.13
-54.11
-63.31
-76.12
-91.11
-106.43
-120.28
-131.20
-138.28
-141.15
-140.00
-135.65
-129.33
-122.55
-116.68
-112.54
-110.28
-109.46
-109.30
-109.14
-108.59
-107.56
-106.08
-104.18
-101.74
-98.61
-94.54
-89.29
-82.67
-74.52
-64.65
-52.86
-39.05
-23.42
-6.66
10.03
25.22
37.63
46.53
51.88
54.23
54.32
52.85
50.32
47.16
43.90
41.17
39.58
39.46
40.58
42.24
43.57
43.83
42.79
40.79
38.57
36.91
36.36
36.96
38.14
38.88
37.94
34.21
27.04
16.58
3.97
-8.79
-19.16
-24.81
-24.33
-17.83
-6.97
5.47
16.48
23.70
26.05
23.79
18.11
10.40
1.78
-7.18
-16.29
-25.46
-34.43
-42.77
-49.97
-55.64
-59.72
-62.43
-64.16
-65.20
-65.66
-65.44
-64.43
-62.66
-60.38
-57.99
-55.92
-54.44
-53.50
-52.73
-51.47
-48.92
-44.20
-36.54
-25.44
-10.89
6.51
25.57
44.69
62.13
76.39
86.51
92.21
93.99
92.92
90.30
87.37
85.04
83.72
83.38
83.60
83.76
83.06
80.79
76.49
70.22
62.73
55.32
49.37
45.72
44.18
43.40
41.18
35.26
24.13
7.75
-12.24
-32.80
-50.28
-61.39
-64.12
-58.28
-45.54
-29.00
-12.36
1.04
8.97
10.73
7.07
-0.23
-9.07
-17.59
-24.66
-29.89
-33.59
-36.47
-39.42
-43.28
-48.63
-55.61
-63.78
-72.16
-79.51
-84.73
-87.32
-87.52
-86.29
-84.89
-84.44
-85.48
-87.77
-90.26
-91.43
-89.72
-84.04
-74.11
-60.51
-44.30
-26.43
-7.13
14.24
38.84
67.39
99.23
131.70
160.41
180.59
188.83
184.52
170.35
151.38
133.14
119.65
112.09
108.82
106.63
102.26
93.79
81.04
65.01
47.06
28.32
9.76
-7.50
-21.91
-32.04
-37.29
-38.49
-37.76
-37.40
-38.60
-40.62
-41.22
-38.11
-30.31
-18.66
-5.10
8.61
21.82
34.79
47.69
59.57
68.20
70.93
66.18
54.23
37.22
18.17
-0.31
-16.78
-30.96
-43.27
-54.09
-63.49
-71.21
-76.90
-80.25
-81.18
-79.73
-75.99
-70.04
-61.93
-51.72
-39.70
-26.63
-13.90
-3.41
3.10
4.94
3.07
-0.00
-1.16
1.98
10.07
21.96
35.36
47.99
58.42
66.16
71.30
73.97
74.13
71.75
67.26
61.64
56.27
52.42
50.83
51.44
53.57
56.04
57.52
56.73
52.75
45.05
33.71
19.47
3.79
-11.29
-23.52
-31.13
-33.41
-31.02
-25.75
-19.79
-14.90
-11.94
-10.85
-11.07
-12.02
-13.38
-15.05
-16.90
-18.76
-20.50
-22.25
-24.44
-27.56
-31.71
-36.45
-40.84
-43.93
-45.23
-44.96
-43.89
-42.93
-42.65
-43.21
-44.37
-45.79
-47.27
-48.80
-50.42
-52.11
-53.75
-55.13
-56.02
-56.22
-55.55
-53.75
-50.44
-45.17
-37.47
-27.12
-14.26
0.41
15.68
30.18
42.62
52.19
58.66
62.32
63.69
63.24
61.22
57.58
52.29
45.47
37.56
29.23
21.13
13.62
6.64
-0.29
-7.78
-16.38
-26.36
-37.72
-50.18
-63.21
-75.81
-86.40
-92.95
-93.35
-86.22
-71.77
-52.15
-31.10
-12.86
-0.72
4.03
2.40
-3.02
-9.20
-13.86
-15.97
-15.54
-13.23
-9.65
-5.26
-0.41
4.41
8.46
10.95
11.41
9.93
7.21
4.28
2.17
1.40
1.93
3.11
4.07
4.07
2.85
0.86
-0.86
-0.90
1.93
8.22
17.55
28.55
39.32
48.03
53.64
56.23
56.89
57.19
58.49
61.35
65.41
69.62
72.78
74.07
73.32
70.92
67.49
63.47
58.93
53.57
47.11
39.54
31.27
23.00
15.29
8.26
1.44
-6.05
-15.05
-25.99
-38.67
-52.33
-65.88
-77.98
-87.26
-92.38
-92.19
-86.13
-74.55
-58.94
-41.70
-25.57
-12.89
-4.95
-1.81
-2.41
-5.10
-8.11
-9.97
-9.71
-6.97
-1.99
4.52
11.44
17.52
21.54
22.67
20.71
16.13
10.00
3.66
-1.70
-5.40
-7.51
-8.78
-10.29
-12.95
-17.08
-22.04
-26.32
-27.87
-24.71
-15.70
-1.06
17.33
36.37
52.56
63.07
66.51
63.31
55.33
45.08
34.96
26.59
20.79
17.66
16.78
17.41
18.57
19.06
17.76
13.97
7.72
-0.18
-8.29
-15.07
-19.43
-21.16
-21.03
-20.52
-21.27
-24.50
-30.46
-38.36
-46.49
-52.82
-55.64
-54.11
-48.45
-39.80
-29.77
-19.85
-10.92
-3.07
4.30
12.07
20.91
30.85
41.28
51.20
59.71
66.43
71.66
76.02
80.08
83.83
86.69
87.68
86.01
81.47
74.62
66.57
58.57
51.66
46.26
42.15
38.49
34.03
27.43
17.58
3.96
-13.15
-32.65
-52.73
-71.30
-86.45
-96.86
-101.99
-101.97
-97.36
-88.85
-77.11
-62.83
-46.89
-30.48
-15.05
-1.95
7.84
14.06
17.12
17.84
16.95
14.78
11.28
6.21
-0.45
-8.28
-16.40
-23.70
-29.23
-32.50
-33.56
-32.95
-31.50
-30.23
-30.14
-32.14
-36.75
-43.88
-52.56
-60.96
-66.81
-68.03
-63.36
-52.86
-37.89
-20.76
-4.07
9.98
20.14
26.18
28.76
29.04
28.13
26.80
25.37
23.80
21.93
19.67
17.01
14.06
10.92
7.68
4.47
1.60
-0.52
-1.44
-0.91
1.06
4.07
7.48
10.59
12.85
13.96
14.02
13.33
12.32
11.31
10.47
9.89
9.80
10.73
13.44
18.68
26.81
37.49
49.70
62.02
73.12
82.07
88.56
92.71
94.85
95.22
93.89
90.77
85.78
78.96
70.62
61.34
51.79
42.59
34.07
26.21
18.69
11.02
2.75
-6.28
-15.87
-25.46
-34.18
-41.23
-46.10
-48.80
-49.94
-50.59
-51.86
-54.47
-58.43
-62.95
-66.74
-68.47
-67.28
-63.06
-56.36
-48.18
-39.60
-31.53
-24.61
-19.28
-15.88
-14.65
-15.70
-18.79
-23.26
-28.09
-32.16
-34.57
-35.03
-33.86
-31.84
-29.84
-28.41
-27.51
-26.56
-24.74
-21.35
-16.17
-9.66
-2.94
2.46
5.12
4.14
-0.29
-6.82
-13.10
-16.46
-14.78
-7.19
5.67
21.90
39.01
54.68
67.27
75.86
80.13
80.09
75.96
68.25
57.92
46.41
35.40
26.43
20.40
17.33
16.38
16.19
15.33
12.65
7.51
-0.12
-9.67
-20.01
-29.70
-37.27
-41.75
-43.07
-42.18
-40.79
-40.65
-42.84
-47.23
-52.56
-56.85
-58.27
-55.68
-49.05
-39.25
-27.65
-15.71
-4.61
4.87
12.30
17.54
20.64
21.84
21.68
20.93
20.46
21.11
23.30
26.99
31.63
36.48
40.99
45.07
49.19
54.16
60.74
69.24
79.18
89.38
98.23
104.15
106.11
103.85
98.02
90.07
81.96
75.82
73.50
76.18
84.05
96.19
110.63
124.79
135.96
141.94
141.56
134.96
123.52
109.53
95.50
83.40
73.98
66.58
59.35
50.05
36.82
18.77
-3.94
-30.24
-58.57
-87.00
-113.57
-136.46
-154.46
-167.36
-176.18
-182.92
-189.73
-198.08
-208.14
-218.77
-228.02
-233.96
-235.20
-231.20
-222.13
-208.75
-192.13
-173.57
-154.40
-135.83
-118.78
-103.71
-90.69
-79.43
-69.51
-60.51
-52.05
-43.94
-36.06
-28.41
-21.07
-14.21
-8.01
-2.64
1.84
5.48
8.42
10.84
12.89
14.56
15.72
16.13
15.53
13.75
10.85
7.18
3.49
0.72
-0.08
1.94
7.24
15.72
26.74
39.26
51.99
63.71
73.47
80.71
85.42
87.93
88.78
88.39
86.97
84.55
81.19
77.18
72.91
68.71
64.42
59.35
52.58
43.50
32.33
20.24
8.86
-0.42
-7.19
-12.18
-16.96
-23.29
-32.39
-44.55
-59.03
-74.20
-87.90
-97.96
-102.64
-101.13
-93.79
-81.94
-67.45
-52.13
-37.36
-23.93
-12.25
-2.51
5.12
10.54
13.84
15.45
16.07
16.51
17.51
19.50
22.57
26.49
30.88
35.35
39.53
43.02
45.25
45.56
43.38
38.54
31.61
23.82
16.74
11.59
8.84
8.06
8.41
9.23
