1500365974.00
64.000000
-0.00
-0.00
-0.00
-0.00
-0.00
-0.00
-0.00
-0.00
-0.00
-0.00
0.00
0.01
0.01
-0.00
-0.03
-0.05
-0.05
0.00
0.13
0.36
0.66
1.01
1.37
1.72
2.06
2.40
2.79
3.24
3.80
4.42
5.06
5.66
6.20
6.68
7.15
7.68
8.31
9.14
10.09
11.04
11.88
12.56
13.14
13.76
14.65
15.96
17.91
20.32
22.90
25.38
27.58
29.57
31.68
34.32
37.81
42.54
48.15
54.10
59.83
64.97
69.58
74.14
79.34
85.71
93.76
103.00
112.62
121.73
129.77
136.75
143.30
150.75
157.77
166.64
177.95
191.79
206.97
220.57
228.25
225.36
208.53
176.87
132.76
80.05
23.07
-34.94
-92.44
-149.16
-205.23
-260.37
-313.74
-363.87
-409.83
-450.91
-486.50
-515.74
-537.23
-549.22
-549.96
-538.37
-514.21
-478.67
-433.88
-382.45
-327.02
-269.84
-212.63
-156.66
-102.95
-52.37
-5.90
35.58
71.43
101.35
125.50
144.38
158.69
169.15
176.37
180.75
182.57
182.07
179.51
175.23
169.65
163.18
156.15
148.81
141.30
133.69
126.02
118.33
110.69
103.16
95.80
88.68
81.83
75.25
68.95
62.95
57.25
51.86
46.78
42.03
37.59
33.45
29.62
26.07
22.81
19.82
17.11
14.66
12.49
10.56
8.86
7.37
6.06
4.91
3.91
3.06
2.35
1.79
1.34
1.00
0.71
0.47
0.23
0.02
-0.16
-0.30
-0.38
-0.41
-0.41
-0.43
-0.50
-0.62
-0.80
-0.96
-1.07
-1.09
-1.02
-0.93
-0.92
-1.07
-1.40
-1.87
-2.35
-2.70
-2.83
-2.75
-2.60
-2.59
-2.89
-3.57
-4.51
-5.48
-6.19
-6.49
-6.37
-6.09
-6.00
-6.38
-7.34
-8.73
-10.16
-11.25
-11.77
-11.70
-11.31
-10.96
-10.95
-11.53
-12.88
-15.08
-17.87
-20.53
-21.75
-20.06
-14.45
-5.05
6.71
18.59
28.39
34.89
38.16
39.21
39.26
39.05
38.71
37.98
36.76
35.28
33.98
33.05
32.24
30.90
28.35
24.35
18.99
12.89
6.81
1.34
-3.16
-6.73
-9.54
-11.75
-13.49
-14.80
-15.55
-15.65
-15.01
-13.64
-11.73
-9.60
-7.63
-6.17
-5.43
-5.35
-5.82
-6.56
-7.34
-7.94
-8.22
-8.13
-7.71
-7.14
-6.62
-6.24
-6.01
-5.79
-5.44
-4.92
-4.34
-3.95
-3.92
-4.25
-4.76
-5.23
-5.49
-5.52
-5.44
-5.42
-5.55
-5.88
-6.31
-6.75
-7.10
-7.31
-7.37
-7.30
-7.17
-7.00
-6.73
-6.13
-4.96
-3.02
-0.35
2.78
5.94
8.75
11.11
12.83
14.00
14.78
15.27
15.56
15.64
15.54
15.27
14.82
14.11
13.09
11.70
10.03
8.27
6.62
5.23
4.07
2.98
1.74
0.28
-1.37
-3.11
-4.83
-6.50
-8.16
-9.82
-11.45
-13.02
-14.50
-15.96
-17.54
-19.35
-21.41
-23.53
-25.38
-26.59
-26.84
-25.94
-23.81
-20.54
-16.32
-11.51
-6.53
-1.85
2.19
5.47
8.03
10.10
11.89
13.49
14.88
15.89
16.35
16.20
15.53
14.57
13.58
12.73
12.04
11.43
10.78
10.00
9.07
7.99
6.74
5.27
3.46
1.31
-1.08
-3.48
-5.65
-7.51
-9.12
-10.71
-12.49
-14.61
-17.04
-19.57
-21.88
-23.58
-24.28
-23.67
-21.64
-18.30
-13.98
-9.20
-4.46
-0.12
3.66
6.86
9.48
11.46
12.70
13.09
12.73
11.88
10.94
10.29
10.10
10.31
10.65
10.83
10.65
10.09
9.32
8.53
7.78
6.95
5.73
3.84
1.19
-1.96
-5.12
-7.77
-9.62
-10.78
-11.75
-13.12
-15.29
-18.26
-21.57
-24.52
-26.42
-26.81
-25.60
-22.97
-19.30
-15.00
-10.49
-6.13
-2.25
0.89
3.19
4.67
5.45
5.68
5.46
4.74
3.51
1.73
-0.50
-2.98
-5.48
-7.75
-9.66
-11.11
-12.07
-12.57
-12.71
-12.73
-12.90
-13.53
-14.77
-16.67
-19.12
-21.97
-25.18
-28.72
-32.63
-36.78
-40.88
-44.44
-46.93
-47.94
-47.28
-44.99
-41.22
-36.20
-30.18
-23.54
-16.71
-10.18
-4.34
0.63
4.79
8.37
11.60
14.59
17.30
19.69
21.74
23.54
25.22
26.89
28.54
30.11
31.50
32.70
33.71
34.55
35.11
35.26
34.78
33.61
31.77
29.41
26.68
23.59
20.03
15.87
11.14
6.13
1.48
-2.00
-3.62
-2.98
-0.17
4.32
9.71
15.21
20.16
24.20
27.24
29.39
30.89
31.97
32.74
33.20
33.24
32.79
31.87
30.66
29.40
28.30
27.38
26.54
25.55
24.16
22.26
19.81
16.87
13.50
9.76
5.76
1.63
-2.41
-6.20
-9.71
-13.13
-16.78
-20.96
-25.74
-30.87
-35.75
-39.59
-41.64
-41.36
-38.57
-33.51
-26.72
-18.91
-10.84
-3.17
3.59
9.14
13.36
16.34
18.34
19.69
20.75
21.76
22.80
23.73
24.30
24.29
23.62
22.44
21.09
19.89
19.04
18.50
18.02
17.30
16.10
14.35
12.15
9.68
7.09
4.43
1.65
-1.30
-4.43
-7.68
-10.96
-14.24
-17.55
-20.95
-24.37
-27.55
-29.97
-31.04
-30.25
-27.45
-22.95
-17.41
-11.63
-6.25
-1.66
2.07
5.04
7.41
9.29
10.79
12.01
13.08
14.18
15.31
16.46
17.48
18.30
18.94
19.52
20.13
20.76
21.28
21.43
20.99
19.84
18.00
15.56
12.69
9.56
6.30
3.03
-0.21
-3.52
-7.06
-10.97
-15.35
-20.10
-25.00
-29.83
-34.25
-38.00
-40.81
-42.38
-42.38
-40.53
-36.72
-31.15
-24.32
-16.85
-9.35
-2.33
3.84
8.96
12.98
16.04
18.41
20.33
22.22
24.39
26.81
29.17
31.05
31.99
31.86
30.66
28.44
25.91
23.71
22.00
20.40
18.27
14.88
10.25
4.69
-1.37
-6.22
-8.40
-7.66
-5.16
-2.81
-2.85
-5.90
-11.90
-20.23
-27.79
-31.23
-28.67
-20.25
-7.48
6.97
22.03
36.80
50.37
64.70
82.04
103.03
126.28
149.66
170.70
190.03
208.74
211.66
189.03
142.23
83.43
26.41
-13.29
-39.92
-58.19
-71.20
-80.32
-86.23
-87.77
-85.31
-81.28
-79.06
-81.50
-87.81
-96.34
-105.33
-111.24
-110.94
-103.50
-90.27
-74.26
-58.29
-42.58
-26.72
-12.39
-0.31
9.84
18.86
31.34
46.24
61.43
76.79
89.63
99.24
106.31
111.83
116.20
118.99
118.91
115.38
108.91
100.07
89.65
78.39
67.02
56.10
46.11
36.84
28.34
20.46
12.59
4.17
-5.35
-16.04
-27.49
-39.05
-50.44
-61.24
-71.14
-80.02
-87.69
-94.55
-101.01
-107.27
-113.22
-118.68
-123.10
-125.75
-125.90
-122.99
-117.75
-111.01
-103.39
-95.20
-86.87
-79.09
-72.62
-68.13
-66.08
-67.99
-74.45
-84.68
-96.88
-109.26
-120.75
-130.75
-138.92
-145.00
-150.42
-155.76
-160.31
-162.50
-161.03
-155.57
-146.26
-133.31
-106.43
-62.76
-8.17
45.86
90.14
121.33
140.33
149.97
153.26
152.56
147.92
139.71
129.36
119.14
111.86
107.80
106.46
106.92
107.99
107.14
102.77
94.69
84.05
72.43
60.88
50.32
41.31
34.08
27.32
20.65
14.39
9.32
5.92
3.84
2.54
1.42
0.08
-2.05
-5.09
-8.87
-12.82
-16.54
-19.83
-22.40
-23.76
-23.74
-22.80
-21.62
-20.93
-20.79
-20.93
-20.78
-19.39
-15.57
-8.70
1.22
13.49
26.91
40.29
51.94
60.03
63.18
61.22
54.51
43.91
30.38
13.21
-5.99
-24.81
-41.84
-57.04
-69.84
-79.72
-86.22
-89.54
-90.50
-90.01
-89.24
-89.08
-90.84
-91.98
-90.51
-85.77
-78.54
-70.29
-62.26
-55.62
-51.15
-49.06
-46.95
-42.68
-34.81
-23.35
-8.46
9.82
31.22
55.01
80.04
107.34
137.07
168.27
198.91
227.09
251.47
271.43
287.11
285.72
261.73
219.50
171.34
128.28
94.85
69.35
47.74
26.70
4.98
-13.13
-26.02
-33.52
-37.40
-40.30
-45.38
-54.88
-69.59
-88.95
-110.49
-130.64
-147.44
-160.34
-163.71
-153.85
-131.51
-102.28
-73.19
-48.73
-30.97
-20.10
-15.17
-14.63
-17.51
-23.19
-31.02
-39.87
-48.09
-54.31
-57.82
-58.62
-57.20
-54.76
-52.36
-51.35
-50.63
-48.78
-44.78
-38.31
-29.82
-20.27
-10.95
-2.90
3.66
9.54
15.94
23.93
34.10
46.27
58.13
67.39
72.17
71.65
66.43
58.24
49.42
42.08
37.48
35.78
36.38
38.31
40.64
42.78
44.33
44.79
43.57
40.09
34.16
26.40
17.89
10.26
3.93
-1.04
-5.04
-8.79
-12.91
-17.66
-22.69
-27.26
-30.57
-32.13
-31.78
-29.86
-27.11
-24.37
-22.33
-21.29
-21.16
-21.64
-22.50
-23.54
-24.86
-26.72
-29.40
-33.12
-37.92
-43.68
-49.63
-54.83
-58.10
-58.26
-54.46
-46.47
-34.81
-20.72
-5.72
8.63
21.10
30.97
37.96
42.12
43.75
43.30
41.39
38.75
36.07
33.88
32.43
31.75
31.67
31.93
32.20
32.14
31.44
29.85
27.25
23.78
19.75
15.55
11.44
7.45
3.30
-1.47
-7.37
-14.72
-23.55
-33.37
-43.20
-51.68
-57.31
-58.82
-55.51
-47.52
-35.81
-21.95
-7.67
5.51
16.63
25.29
31.56
35.72
38.08
38.94
38.64
37.59
36.31
35.28
34.79
34.79
34.99
35.00
34.53
33.47
31.81
29.59
26.72
23.09
18.65
13.43
7.67
1.60
-4.60
-10.97
-17.73
-25.20
-33.53
-42.44
-51.12
-58.27
-62.42
-62.43
-57.89
-49.29
-37.89
-25.30
-12.99
-2.01
7.09
14.18
19.29
22.47
23.77
23.29
21.27
18.15
14.46
10.83
7.79
5.67
4.51
4.09
4.01
3.82
3.18
1.88
-0.10
-2.66
-5.68
-9.05
-12.72
-16.72
-21.15
-26.13
-31.77
-38.00
-44.49
-50.55
-55.23
-57.46
-56.38
-51.62
-43.49
-32.89
-21.06
-9.27
1.50
10.67
17.97
23.31
26.61
27.85
27.14
24.86
21.73
18.65
16.36
15.17
14.84
14.64
13.75
11.55
7.90
3.11
-2.26
-7.75
-13.16
-18.61
-24.42
-30.91
-38.26
-46.41
-54.96
-63.16
-69.77
-73.18
-71.58
-63.45
-48.01
-25.68
1.90
32.16
62.19
89.43
112.08
129.25
140.84
147.32
149.53
148.51
145.33
140.85
135.46
128.96
120.72
110.02
96.46
80.31
62.48
44.32
27.30
12.55
0.63
-8.52
-15.45
-20.93
-25.64
-30.00
-34.21
-38.31
-42.36
-46.45
-50.63
-54.78
-58.62
-61.81
-64.01
-64.96
-64.32
-61.63
-56.35
-48.06
-36.70
-22.77
-7.16
9.07
24.95
39.67
52.54
62.85
69.84
72.88
71.70
66.57
58.30
48.03
36.95
25.97
15.64
6.13
-2.68
-10.90
-18.65
-25.91
-32.54
-38.45
-43.58
-48.03
-52.02
-55.83
-59.67
-63.61
-67.52
-71.06
-73.87
-75.69
-76.54
-76.74
-76.70
-76.65
-76.42
-75.31
-72.33
-66.46
-56.98
-43.66
-26.89
-7.61
12.92
33.27
52.14
68.62
82.27
93.10
101.32
107.23
111.05
112.97
113.27
112.30
110.44
108.00
105.02
101.33
96.64
90.65
83.26
74.53
64.75
54.34
43.75
33.40
23.47
13.97
4.74
-4.43
-13.57
-22.48
-30.82
-38.21
-44.47
-49.71
-54.31
-58.77
-63.50
-68.66
-74.09
-79.22
-83.18
-84.98
-83.68
-78.76
-70.31
-59.06
-46.24
-33.27
-21.33
-11.16
-3.06
3.01
7.21
9.70
10.69
10.53
9.76
8.97
8.67
9.06
10.06
11.40
12.84
14.25
15.59
16.77
17.52
17.50
16.40
14.20
11.22
7.96
4.86
2.05
-0.67
-3.70
-7.29
-11.41
-15.72
-19.80
-23.39
-26.50
-29.37
-32.33
-35.64
-39.42
-43.75
-48.61
-53.89
-59.16
-63.58
-66.01
-65.29
-60.67
-52.17
-40.68
-27.63
-14.63
-2.95
6.68
14.08
19.39
22.91
24.90
25.61
25.38
24.61
23.81
23.44
23.81
24.93
26.54
28.19
29.45
30.06
30.01
29.44
28.57
27.42
25.88
23.74
20.87
17.38
13.59
9.95
6.80
4.17
1.71
-1.10
-4.77
-9.44
-14.77
-20.08
-24.69
-28.18
-30.66
-32.68
-34.94
-38.06
-42.32
-47.57
-53.28
-58.58
-62.34
-63.38
-60.73
-54.01
-43.64
-30.77
-16.99
-3.85
7.58
16.80
23.79
28.68
31.64
32.81
32.40
30.88
28.89
27.11
26.01
25.75
26.13
26.77
27.30
27.54
27.44
27.06
26.46
25.62
24.42
22.73
20.42
17.42
13.79
9.69
5.37
1.16
-2.74
-6.26
-9.57
-12.91
-16.45
-20.26
-24.19
-27.99
-31.48
-34.60
-37.50
-40.49
-44.00
-48.41
-53.90
-60.24
-66.69
-72.06
-74.88
-73.93
-68.49
-58.68
-45.43
-30.22
-14.67
-0.18
12.27
22.20
29.47
34.18
36.53
36.84
35.60
33.54
31.46
30.07
29.77
30.52
31.90
33.38
34.60
35.47
36.16
36.84
37.50
37.86
37.48
35.99
33.31
29.70
25.66
21.63
17.83
14.23
10.54
6.52
2.03
-2.89
-8.08
-13.35
-18.57
-23.71
-28.79
-33.82
-38.87
-44.05
-49.57
-55.65
-62.29
-69.06
-74.97
-78.62
-78.56
-73.77
-64.06
-50.21
-33.75
-16.55
-0.36
13.56
24.56
32.51
37.63
40.29
40.93
40.07
38.23
36.00
33.91
32.41
31.70
31.80
32.52
33.56
34.67
35.56
35.98
35.68
34.48
32.33
29.35
25.81
22.00
18.11
14.13
9.99
5.54
0.68
-4.65
-10.39
-16.42
-22.49
-28.28
-33.49
-37.89
-41.53
-44.80
-48.34
-52.80
-58.43
-64.67
-70.11
-72.82
-71.02
-63.81
-51.58
-35.92
-19.06
-3.07
10.70
21.78
30.25
36.40
40.36
42.18
41.95
40.02
37.03
33.79
31.03
29.23
28.56
28.85
29.77
30.96
32.13
33.16
33.98
34.52
34.61
33.89
32.03
28.77
24.13
18.41
12.05
5.56
-0.69
-6.48
-11.71
-16.43
-20.74
-24.92
-29.37
-34.55
-40.74
-47.76
-54.79
-60.51
-63.29
-61.76
-55.18
-43.75
-28.61
-11.54
5.52
20.90
33.54
42.93
48.98
51.91
52.04
49.75
45.66
40.59
35.54
31.48
28.86
27.71
27.62
28.05
28.58
29.04
29.56
30.32
31.34
32.09
31.86
30.13
26.80
22.16
16.75
11.16
5.81
0.91
-4.06
-9.50
-15.50
-21.83
-28.16
-34.19
-39.55
-43.75
-45.99
-46.13
-44.06
-39.92
-34.27
-28.18
-22.85
-19.11
-17.13
-13.45
-6.65
2.28
10.43
15.00
14.78
10.06
2.10
-7.58
-17.41
-26.93
-35.47
-42.24
-46.61
-48.48
-48.39
-47.13
-46.61
-46.41
-46.54
-46.30
-44.95
-42.21
-38.56
-34.94
-32.19
-30.78
-30.56
-31.74
-33.49
-34.99
-35.87
-36.33
-36.60
-35.99
-33.59
-28.06
-18.83
-4.65
15.11
40.02
68.53
98.68
128.77
157.34
183.59
198.79
196.87
177.83
148.18
116.45
88.61
66.95
50.95
39.18
29.77
22.16
16.09
11.07
6.25
0.87
-4.05
-9.62
-16.40
-24.71
-33.65
-41.85
-48.14
-51.91
-53.28
-52.91
-52.10
-52.03
-53.75
-57.12
-61.22
-65.29
-68.15
-68.53
-65.17
-57.19
-44.27
-26.95
-6.39
15.74
37.46
56.93
72.83
84.74
93.12
98.88
102.97
106.00
108.20
109.32
108.92
106.50
101.86
95.15
86.32
75.32
61.96
46.47
29.62
12.56
-3.78
-20.24
-35.92
-49.87
-61.66
-71.57
-79.34
-84.00
-84.76
-81.82
-76.47
-70.27
-66.18
-64.12
-63.21
-62.09
-59.26
-53.77
-45.41
-34.66
-22.34
-9.72
2.05
12.17
19.52
23.42
23.76
20.96
15.87
9.62
3.12
-2.78
-7.70
-11.40
-13.68
-14.46
-13.95
-12.66
-11.16
-10.07
-9.61
-9.80
-10.45
-11.32
-12.43
-14.11
-16.84
-20.87
-26.02
-31.67
-37.07
-41.76
-45.67
-49.20
-53.05
-57.91
-64.13
-71.43
-78.94
-85.30
-88.92
-88.32
-82.36
-70.84
-54.51
-34.93
-13.87
6.95
26.28
43.39
57.87
69.78
78.95
85.04
87.85
87.70
85.40
82.21
79.55
78.51
80.10
84.38
90.65
97.87
105.33
112.49
119.06
124.90
129.53
132.77
133.94
132.04
126.39
117.10
104.71
90.18
74.65
55.26
32.79
10.47
-8.48
-23.20
-34.74
-44.53
-54.39
-63.42
-69.73
-71.03
-66.54
-57.42
-46.37
-34.09
-22.75
-14.20
-9.12
-7.46
-8.16
-10.37
-13.82
-18.47
-24.02
-30.10
-35.95
-40.72
-44.21
-46.55
-48.48
-50.93
-54.56
-59.40
-64.92
-70.29
-74.92
-79.01
-83.25
-88.64
-95.97
-105.40
-116.19
-126.71
-135.20
-140.62
-143.14
-143.72
-143.50
-143.15
-142.69
-141.51
-138.05
-130.75
-118.82
-102.57
-82.88
-60.71
-36.80
-11.76
13.82
40.13
67.24
94.43
120.23
143.18
162.62
178.79
192.49
198.78
193.79
177.63
155.16
132.28
112.66
97.16
84.86
74.28
64.25
55.27
48.42
44.34
42.45
41.33
39.47
35.91
30.55
24.12
18.27
14.24
12.30
10.65
7.38
1.46
-6.98
-16.79
-26.33
-33.73
-37.62
-37.68
-34.63
-29.65
-24.07
-19.09
-15.56
-13.88
-13.69
-14.32
-15.25
-16.37
-17.93
-19.59
-21.25
-22.70
-23.69
-24.04
-23.76
-23.14
-22.57
-22.23
-21.99
-21.49
-20.32
-18.27
-15.50
-12.47
-9.83
-8.15
-7.71
-8.43
-10.04
-12.04
-13.90
-15.23
-15.92
-16.23
-16.63
-17.63
-19.60
-22.63
-26.54
-30.82
-34.82
-37.84
-39.24
-38.66
-36.01
-31.62
-26.06
-20.07
-14.27
-9.15
-5.06
-2.26
-0.99
-1.41
-3.40
-6.50
-9.92
-12.70
-14.02
-13.43
-10.99
-7.15
-2.60
2.09
6.66
11.27
16.36
22.41
29.72
38.21
47.46
56.88
65.95
74.37
82.05
89.03
95.26
100.57
104.61
107.00
107.43
105.78
102.18
97.03
90.98
84.72
78.82
73.47
68.33
62.60
55.18
45.03
31.47
14.43
-5.41
-26.67
-47.65
-66.76
-82.88
-95.69
-105.53
-113.11
-119.07
-123.72
-126.98
-128.64
-128.53
-126.70
-123.29
-118.35
-111.77
-103.37
-93.15
-81.47
-69.11
-57.01
-45.92
-36.22
-27.76
-20.11
-12.78
-5.57
1.40
7.69
12.76
16.18
17.82
18.02
17.56
17.56
19.15
23.17
29.82
38.59
48.42
58.12
66.69
73.50
78.31
81.05
81.71
80.30
76.89
71.81
65.57
58.77
52.03
45.78
40.31
35.72
32.02
29.07
26.61
24.37
22.09
19.64
17.06
14.48
12.04
9.79
7.68
5.56
3.35
1.01
-1.48
-4.23
-7.42
-11.25
-15.67
-20.21
-23.87
-25.44
-23.90
-18.90
-10.95
-1.18
9.07
18.68
27.05
33.92
39.16
42.62
44.14
43.71
41.61
38.42
34.82
31.34
28.23
25.43
22.83
20.40
18.26
16.65
15.69
15.31
15.15
14.69
13.40
10.95
7.34
2.85
-2.07
-6.95
-11.53
-15.76
-19.89
-24.29
-29.31
-35.12
-41.46
-47.63
-52.54
-55.08
-54.35
-50.07
-42.60
-32.82
-21.89
-10.92
-0.85
7.61
13.91
17.73
19.01
17.99
15.19
11.33
7.09
3.00
-0.60
-3.53
-5.77
-7.36
-8.46
-9.31
-10.22
-11.49
-13.24
-15.44
-17.85
-20.17
-22.12
-23.62
-24.81
-26.01
-27.58
-29.88
-33.12
-37.35
-42.50
-48.22
-53.90
-58.61
-61.24
-60.72
-56.41
-48.37
-37.43
-24.96
-12.42
-0.99
8.64
16.28
21.96
25.80
27.90
28.35
27.36
25.26
22.54
19.69
17.08
14.91
13.20
11.82
10.63
9.53
8.42
7.20
5.76
3.96
1.63
-1.27
-4.70
-8.47
-12.34
-16.18
-20.10
-24.40
-29.41
-35.20
-41.29
-46.63
-49.78
-49.37
-44.64
-35.70
-23.60
-9.96
3.50
15.45
25.10
32.19
36.82
39.26
39.91
39.22
37.65
35.61
33.36
30.98
28.46
25.86
23.32
21.06
19.22
17.78
16.55
15.23
13.58
11.49
9.00
6.14
2.88
-0.79
-4.93
-9.53
-14.56
-20.08
-26.13
-32.74
-39.61
-46.02
-50.79
-52.60
-50.37
-43.76
-33.32
-20.42
-6.78
5.99
16.83
25.29
31.43
35.54
37.94
38.88
38.53
37.05
34.66
31.71
28.61
25.72
23.35
21.52
20.10
18.80
17.36
15.65
13.67
11.49
9.09
6.35
3.02
-0.99
-5.62
-10.61
-15.67
-20.65
-25.69
-31.05
-36.86
-42.89
-48.36
-52.16
-53.15
-50.56
-44.26
-34.80
-23.19
-10.68
1.58
12.75
22.28
29.91
35.57
39.32
41.33
41.84
41.18
39.75
37.91
35.99
34.23
32.72
31.42
30.23
29.02
27.65
26.04
24.09
21.76
18.93
15.55
11.59
7.13
2.34
-2.55
-7.30
-11.82
-16.17
-20.66
-25.62
-31.29
-37.48
-43.48
-48.10
-49.96
-47.96
-41.70
-31.68
-19.16
-5.73
7.11
18.32
27.37
34.15
38.73
41.36
42.29
41.91
40.65
38.92
37.02
35.06
33.05
30.92
28.64
26.17
23.48
20.50
17.07
13.05
8.34
2.95
-3.02
-9.33
-15.80
-22.26
-28.57
-34.65
-40.42
-45.91
-51.22
-56.60
-62.31
-68.42
-74.62
-80.13
-83.77
-84.27
-80.81
-73.25
-62.30
-49.24
-35.55
-22.52
-11.02
-1.52
5.79
10.89
13.89
15.07
14.85
13.72
12.18
10.55
9.00
7.62
6.49
5.77
5.64
6.17
7.26
8.59
9.68
10.10
9.56
7.96
5.45
2.29
-1.20
-4.75
-8.22
-11.66
-15.29
-19.45
-24.44
-30.35
-36.86
-43.22
-48.30
-50.82
-49.79
-44.76
-36.06
-24.73
-12.18
0.13
11.07
19.97
26.63
31.16
33.82
34.95
34.90
34.09
32.90
31.68
30.66
29.93
29.49
29.22
29.03
28.80
28.39
27.67
26.53
24.88
22.69
20.00
16.88
13.45
9.76
5.85
1.71
-2.64
-7.24
-12.22
-17.77
-24.04
-30.83
-37.52
-42.92
-45.64
-44.51
-39.10
-29.83
-17.91
-4.91
7.72
18.93
28.22
35.46
40.71
44.07
45.66
45.63
44.26
41.87
38.90
35.76
32.83
30.38
28.55
27.32
26.53
25.92
25.12
23.80
21.76
19.00
15.70
12.13
8.45
4.67
0.66
-3.66
-8.24
-12.89
-17.49
-22.12
-27.05
-32.43
-37.95
-42.66
-45.14
-44.06
-38.79
-29.80
-18.44
-6.46
4.67
14.13
21.83
27.98
32.80
36.31
38.34
38.81
37.84
35.87
33.48
31.16
29.18
27.55
26.11
24.73
23.38
22.13
21.05
20.06
18.89
17.15
14.46
10.67
5.93
0.68
-4.52
-9.16
-13.04
-16.29
-19.34
-22.79
-27.12
-32.50
-38.48
-44.06
-47.85
-48.54
-45.30
-38.22
-28.20
-16.68
-5.13
5.37
14.31
21.58
27.23
31.29
33.73
34.59
34.09
32.64
30.77
28.86
27.11
25.48
23.87
22.17
20.40
18.68
17.16
15.89
14.81
13.68
12.23
10.20
7.48
4.09
0.20
-4.00
-8.30
-12.59
-16.83
-21.03
-25.28
-29.75
-34.59
-39.82
-45.17
-49.97
-53.31
-54.24
-52.12
-46.87
-38.99
-29.42
-19.23
-9.39
-0.59
6.73
12.36
16.26
18.52
19.37
19.12
18.12
16.79
15.45
14.36
13.60
13.09
12.72
12.37
12.00
11.59
11.11
10.39
9.21
7.26
4.40
0.68
-3.63
-8.15
-12.57
-16.71
-20.63
-24.51
-28.55
-32.98
-37.91
-43.28
-48.78
-53.77
-57.34
-58.48
-56.37
-50.72
-41.90
-30.93
-19.13
-7.86
1.91
9.55
14.83
17.74
18.37
17.01
14.13
10.40
6.55
3.16
0.57
-1.18
-2.23
-2.79
-2.99
-2.89
-2.52
-1.95
-1.36
-1.00
-1.14
-2.07
-3.90
-6.62
-9.98
-13.59
-17.09
-20.28
-23.16
-26.03
-29.25
-33.10
-37.52
-42.01
-45.68
-47.44
-46.32
-41.74
-33.71
-22.76
-9.79
4.21
18.23
31.34
42.75
51.75
57.87
61.00
61.42
59.73
56.72
53.10
49.40
45.92
42.78
40.01
37.55
35.32
33.30
31.45
29.81
28.31
26.82
25.03
22.62
19.41
15.41
10.87
6.14
1.52
-2.90
-7.26
-11.89
-17.10
-23.03
-29.49
-35.93
-41.43
-44.92
-45.37
-42.10
-34.99
-24.60
-12.08
1.12
13.52
23.94
31.70
36.69
39.22
39.81
38.92
36.91
34.08
30.71
27.22
24.07
21.66
20.13
19.35
19.00
18.73
18.37
17.88
17.31
16.59
15.54
13.92
11.56
8.46
4.81
0.88
-3.10
-7.02
-10.93
-15.04
-19.63
-24.94
-30.92
-37.07
-42.33
-45.28
-44.56
-39.40
-30.01
-17.58
-3.90
9.19
20.30
28.65
33.98
36.36
36.02
33.33
28.91
23.60
18.34
13.92
10.78
8.92
8.06
7.83
7.95
8.24
8.58
8.79
8.61
7.75
5.96
3.19
-0.42
-4.56
-8.81
-12.83
-16.41
-19.55
-22.49
-25.65
-29.41
-33.96
-39.07
-44.02
-47.66
-48.71
-46.14
-39.55
-29.33
-16.58
-2.78
10.66
22.67
32.60
40.17
45.27
47.99
48.58
47.51
45.42
42.97
40.64
38.69
37.09
35.74
34.42
32.90
30.91
28.11
24.25
19.30
13.54
7.59
2.20
-1.82
-3.78
-3.18
0.21
6.38
14.94
25.14
35.90
46.05
54.51
60.64
64.40
66.39
67.75
69.69
73.18
78.60
85.56
93.03
99.56
103.70
104.34
101.00
93.83
83.56
71.19
57.85
44.54
32.15
21.42
12.98
7.14
3.76
2.08
0.83
-1.36
-5.55
-12.02
-20.30
-29.43
-38.38
-46.43
-53.31
-59.13
-64.26
-69.09
-73.98
-79.22
-85.00
-91.45
-98.53
-105.96
-113.05
-118.78
-121.97
-121.48
-116.64
-107.48
-94.80
-79.97
-64.62
-50.19
-37.70
-27.64
-20.02
-14.58
-10.92
-8.62
-7.36
-6.88
-6.96
-7.33
-7.73
-7.88
-7.59
-6.79
-5.55
-4.07
-2.59
-1.38
-0.62
-0.38
-0.58
-1.08
-1.63
-2.08
-2.42
-2.83
-3.68
-5.42
-8.39
-12.62
-17.65
-22.62
-26.34
-27.69
-25.92
-20.92
-13.26
-4.00
5.62
14.48
21.80
27.20
30.60
32.07
31.78
29.88
26.61
22.27
17.28
12.20
7.60
3.95
1.48
0.12
-0.47
-0.78
-1.23
-2.06
-3.29
-4.76
-6.32
-7.87
-9.46
-11.28
-13.55
-16.53
-20.34
-24.99
-30.28
-35.76
-40.79
-44.52
-46.07
-44.70
-40.04
-32.23
-21.92
-10.19
1.69
12.48
21.22
27.35
30.74
31.64
30.53
27.95
24.46
20.54
16.63
13.13
10.42
8.73
8.08
8.16
8.43
8.29
7.36
5.59
3.27
0.84
-1.33
-3.17
-4.88
-6.85
-9.47
-13.04
-17.72
-23.35
-29.43
-35.04
-38.90
-39.74
-36.66
-29.54
-19.10
-6.74
5.91
17.40
26.75
33.47
37.47
38.91
38.08
35.33
31.07
25.75
19.88
14.04
8.79
4.58
1.61
-0.31
-1.67
-3.15
-5.29
-8.32
-12.09
-16.21
-20.30
-24.17
-27.94
-31.91
-36.41
-41.71
-47.83
-54.48
-61.05
-66.65
-70.22
-70.79
-67.66
-60.68
-50.38
-37.79
-24.30
-11.24
0.34
9.86
17.11
22.15
25.14
26.28
25.83
24.15
21.73
19.17
17.05
15.80
15.54
16.10
17.04
17.89
18.24
17.92
16.99
15.63
14.05
12.32
10.30
7.76
4.42
0.04
-5.45
-11.93
-19.02
-26.04
-32.11
-36.16
-37.24
-34.67
-28.30
-18.58
-6.51
6.52
19.01
29.63
37.45
42.06
43.58
42.52
39.55
35.32
30.40
25.26
20.34
16.09
12.83
10.69
9.49
8.82
8.12
6.89
4.87
2.04
-1.42
-5.26
-9.26
-13.28
-17.28
-21.30
-25.45
-29.87
-34.68
-39.86
-45.15
-49.91
-53.17
-53.76
-50.67
-43.36
-32.08
-17.88
-2.36
12.72
25.89
36.24
43.54
48.08
50.42
51.15
50.73
49.45
47.49
45.01
42.21
39.32
36.60
34.28
32.47
31.12
30.04
28.91
27.40
25.31
22.58
19.26
15.45
11.25
6.74
2.01
-2.81
-7.57
-12.23
-16.95
-21.99
-27.48
-33.22
-38.40
-41.83
-42.26
-38.94
-31.96
-22.26
-11.31
-0.62
8.65
15.91
20.93
23.69
24.24
22.66
19.22
14.48
9.24
4.34
0.38
-2.42
-4.16
-5.08
-5.36
-5.08
-4.33
-3.32
-2.48
-2.31
-3.18
-5.17
-8.02
-11.27
-14.44
-17.29
-19.81
-22.18
-24.68
-27.67
-31.41
-35.87
-40.59
-44.57
-46.41
-44.78
-38.97
-29.15
-16.48
-2.68
10.50
21.75
30.36
36.20
39.41
40.20
38.87
35.77
31.45
26.55
21.75
17.60
14.48
12.53
11.67
11.72
12.36
13.22
13.88
13.97
13.23
11.57
9.11
6.04
2.59
-1.12
-5.08
-9.37
-14.09
-19.32
-25.03
-31.09
-37.15
-42.53
-46.31
-47.43
-45.00
-38.71
-29.02
-17.09
-4.52
7.19
16.95
24.28
29.18
31.86
32.58
31.63
29.38
26.38
23.31
20.83
19.30
18.79
19.11
19.95
21.04
22.17
23.13
23.64
23.32
21.86
19.18
15.49
11.26
7.01
3.05
-0.63
-4.35
-8.62
-13.84
-20.15
-27.33
-34.70
-41.28
-45.86
-47.31
-44.85
-38.36
-28.52
-16.75
-4.79
5.73
13.76
18.95
21.60
22.33
21.75
20.34
18.34
16.00
13.52
11.23
9.48
8.54
8.53
9.34
10.72
12.31
13.79
14.87
15.36
15.11
13.97
11.84
8.76
4.94
0.74
-3.51
-7.57
-11.47
-15.49
-20.07
-25.58
-32.13
-39.31
-46.19
-51.50
-53.94
-52.62
-47.38
-38.85
-28.27
-17.15
-6.80
1.86
8.40
12.73
14.96
15.33
14.14
11.81
8.85
5.76
2.97
0.76
-0.82
-1.91
-2.81
-3.83
-5.23
-7.09
-9.44
-12.31
-15.82
-20.23
-25.81
-32.68
-40.69
-49.43
-58.35
-66.99
-75.07
-82.57
-89.55
-96.08
-102.06
-107.23
-111.13
-113.08
-112.28
-107.77
-98.58
-83.99
-63.90
-39.23
-11.89
15.42
39.86
59.21
72.43
79.86
82.87
83.20
82.38
81.42
80.81
80.71
81.06
81.72
82.50
83.27
84.20
85.90
89.37
95.46
104.13
113.84
121.89
125.36
122.28
112.48
97.61
80.58
64.46
51.39
41.82
34.83
28.87
22.41
14.47
4.80
-5.90
-16.02
-23.69
-27.73
-27.68
-23.67
-16.41
-7.08
2.77
11.52
17.82
20.39
17.83
9.59
-3.44
-19.09
-34.73
-48.46
-59.38
-67.53
-70.05
-65.31
-54.35
-40.34
-26.21
-13.59
-3.64
1.86
3.15
0.67
-5.11
-13.14
-21.87
-29.85
-34.85
-36.30
-34.86
-31.75
-28.59
-27.05
-28.01
-31.10
-34.87
-37.34
-37.02
-32.98
-24.91
-13.39
0.16
14.15
27.17
38.30
47.00
52.92
56.10
57.02
56.18
53.96
50.56
46.14
40.86
34.92
28.47
21.71
14.86
7.96
0.85
-6.75
-15.01
-23.89
-33.04
-42.02
-50.37
-57.75
-64.11
-69.60
-74.51
-79.06
-83.51
-88.06
-92.96
-98.36
-104.15
-109.80
-114.28
-116.34
-114.84
-109.23
-99.78
-87.54
-73.99
-60.67
-48.74
-38.84
-31.10
-25.30
-21.07
-18.02
-15.74
-13.77
-11.68
-9.02
-5.43
-0.73
5.11
12.01
19.80
28.26
37.06
45.71
53.56
59.95
64.43
66.95
67.92
68.07
68.18
68.79
70.07
71.81
73.51
74.59
74.56
73.23
70.95
68.68
67.91
70.20
76.65
87.36
101.29
116.51
130.80
142.33
149.97
153.35
152.52
147.72
139.13
126.98
111.75
94.27
75.69
57.27
40.16
25.15
12.65
2.64
-5.25
-11.64
-17.25
-22.72
-28.48
-34.64
-41.11
-47.60
-53.84
-59.60
-64.76
-69.39
-73.76
-78.29
-83.37
-89.10
-95.07
-100.25
-103.31
-103.06
-98.93
-91.21
-80.99
-69.71
-58.84
-49.48
-42.24
-37.35
-34.70
-33.95
-34.54
-35.76
-36.86
-37.15
-36.17
-33.64
-29.51
-23.97
-17.31
-10.04
-2.67
4.37
10.78
16.50
21.59
26.11
30.03
33.20
35.44
36.70
37.04
36.60
35.51
33.82
31.59
29.17
27.19
26.62
28.40
33.13
40.73
50.44
61.02
71.11
79.57
85.67
89.06
89.68
87.62
83.10
76.53
68.54
59.94
51.49
43.73
36.81
30.52
24.50
18.46
12.31
6.12
-0.02
-6.12
-12.27
-18.58
-25.02
-31.47
-37.84
-44.25
-51.04
-58.77
-67.83
-78.21
-89.18
-99.41
-107.25
-111.21
-110.49
-105.18
-96.26
-85.24
-73.67
-62.76
-53.28
-45.54
-39.61
-35.43
-32.90
-31.80
-31.84
-32.62
-33.75
-34.87
-35.63
-35.72
-34.91
-33.12
-30.44
-27.20
-23.85
-20.78
-18.23
-16.23
-14.68
-13.46
-12.47
-11.66
-11.00
-10.46
-9.97
-9.53
-9.06
-8.40
-7.09
-4.43
0.35
7.80
17.91
29.93
42.48
54.01
63.23
69.50
72.93
74.00
73.28
71.02
67.28
62.20
56.43
51.35
48.84
50.61
57.51
69.08
83.58
98.53
111.56
120.98
126.10
127.07
124.50
119.01
111.08
100.93
88.76
74.87
59.73
43.95
28.13
12.75
-1.89
-15.52
-27.71
-37.78
-44.87
-48.24
-47.58
-43.33
-36.65
-29.15
-22.46
-17.78
-15.66
-15.96
-18.05
-21.09
-24.27
-26.97
-28.83
-29.67
-29.46
-28.19
-25.93
-22.80
-19.01
-14.90
-10.85
-7.20
-4.23
-2.10
-0.83
-0.38
-0.66
-1.57
-3.02
-4.98
-7.51
-10.79
-15.03
-20.36
-26.53
-32.91
-38.44
-41.99
-42.68
-40.20
-34.90
-27.67
-19.61
-11.78
-4.98
0.24
3.63
5.11
4.82
3.12
0.60
-2.02
-4.09
-5.16
-5.09
-4.05
-2.32
-0.20
2.16
4.68
7.28
9.80
11.96
13.45
14.07
13.88
13.11
12.08
10.98
9.87
8.62
7.10
5.18
2.78
-0.13
-3.47
-7.01
-10.26
-12.46
-12.80
-10.68
-6.10
0.37
7.66
14.58
20.18
23.85
25.41
24.91
22.59
18.85
14.29
9.61
5.48
2.30
0.10
-1.45
-2.74
-4.02
-5.36
-6.61
-7.71
-8.76
-10.04
-11.85
-14.37
-17.59
-21.38
-25.59
-30.17
-35.03
-40.06
-45.02
-49.72
-54.06
-58.19
-62.37
-66.75
-71.12
-74.79
-76.65
-75.52
-70.50
-61.29
-48.32
-32.65
-15.64
1.38
17.47
32.17
45.38
57.19
67.58
76.37
83.32
88.29
91.47
93.22
93.99
94.03
93.36
91.83
89.33
85.88
81.68
76.93
71.71
66.03
59.83
53.16
46.17
39.04
31.92
24.86
17.85
10.92
4.13
-2.45
-8.80
-15.00
-21.13
-27.27
-33.43
-39.55
-45.61
-51.46
-56.80
-61.03
-63.37
-63.02
-59.56
-53.18
-44.66
-35.13
-25.66
-17.00
-9.50
-3.23
1.79
5.54
7.98
9.22
9.56
9.44
9.35
9.55
10.05
10.66
11.13
11.35
11.42
11.51
11.77
12.17
12.46
12.33
11.50
9.88
7.61
4.98
2.27
-0.35
-2.83
-5.21
-7.59
-10.07
-12.69
-15.50
-18.46
-21.52
-24.56
-27.47
-30.21
-32.91
-35.84
-39.31
-43.51
-48.29
-53.05
-56.85
-58.64
-57.60
-53.38
-46.17
-36.64
-25.79
-14.65
-4.21
4.80
11.95
17.11
20.49
22.50
23.62
24.21
24.53
24.69
24.74
24.75
24.78
24.84
24.87
24.72
24.28
23.56
22.66
21.73
20.88
20.06
19.00
17.43
15.09
11.96
8.23
4.27
0.44
-3.02
-6.10
-8.99
-12.00
-15.45
-19.45
-23.87
-28.38
-32.55
-36.07
-38.88
-41.22
-43.44
-45.93
-48.89
-52.31
-55.93
-59.25
-61.58
-62.13
-60.19
-55.34
-47.67
-37.87
-26.98
-16.09
-6.09
2.54
9.66
15.27
19.43
22.22
23.78
24.36
24.27
23.78
23.03
22.13
21.19
20.38
19.96
20.07
20.74
21.78
22.94
23.95
24.62
24.75
24.16
22.68
20.25
17.02
13.31
9.49
5.81
2.29
-1.24
-4.97
-8.92
-12.97
-16.94
-20.70
-24.32
-27.99
-31.98
-36.45
-41.43
-46.80
-52.14
-56.75
-59.60
-59.62
-55.99
-48.52
-37.78
-25.04
-11.84
0.45
10.96
19.35
25.72
30.33
33.46
35.33
36.19
36.32
36.06
35.62
35.19
34.82
34.52
34.31
34.16
34.02
33.81
33.45
32.85
31.94
30.67
29.01
26.98
24.62
22.00
19.20
16.23
13.01
9.40
5.26
0.53
-4.66
-10.06
-15.32
-20.12
-24.36
-28.18
-31.97
-36.34
-41.97
-49.32
-58.34
-68.32
-77.86
-85.25
-88.97
-88.14
-82.77
-73.64
-61.97
-49.03
-35.95
-23.63
-12.77
-3.89
2.81
7.52
10.87
13.65
16.53
19.78
23.23
26.51
29.38
31.86
34.24
36.82
39.68
42.67
45.45
47.71
49.22
49.90
49.69
48.57
46.54
43.68
40.12
36.03
31.49
26.46
20.82
14.50
7.56
0.25
-7.07
-14.08
-20.68
-26.97
-33.31
-40.27
-48.42
-58.05
-68.90
-80.00
-89.79
-96.53
-98.89
-96.37
-89.45
-79.31
-67.45
-55.08
-42.99
-31.54
-20.89
-11.20
-2.68
4.50
10.38
15.28
19.70
24.20
29.18
34.74
40.64
46.45
51.77
56.32
59.99
62.83
64.93
66.27
66.77
66.30
64.81
62.31
58.90
54.69
49.74
44.04
37.65
30.77
23.75
17.05
11.04
5.90
1.53
-2.46
-6.59
-11.40
-17.19
-23.81
-30.60
-36.36
-39.67
-39.28
-34.55
-25.71
-13.81
-0.43
12.78
24.53
34.05
41.08
45.72
48.22
48.89
48.11
46.25
43.75
41.04
38.52
36.46
35.00
34.04
33.39
32.75
31.94
30.84
29.47
27.87
26.04
23.89
21.26
17.96
13.89
9.07
3.68
-2.01
-7.66
-13.00
-17.87
-22.32
-26.56
-30.87
-35.50
-40.53
-46.00
-51.77
-57.60
-62.95
-67.00
-68.74
-67.24
-62.05
-53.47
-42.47
-30.39
-18.47
-7.53
2.08
10.25
16.90
21.81
24.83
26.00
25.71
24.57
23.23
22.09
21.23
20.54
19.81
18.96
18.07
17.26
16.60
16.00
15.21
13.88
11.66
8.34
3.94
-1.28
-6.90
-12.47
-17.63
-22.19
-26.13
-29.59
-32.84
-36.17
-39.93
-44.33
-49.22
-53.98
-57.43
-58.20
-55.15
-47.85
-36.80
-23.29
-8.96
4.78
17.04
27.45
36.01
42.81
47.86
51.13
52.62
52.54
51.30
49.43
47.45
45.72
44.32
43.12
41.89
40.44
38.74
36.90
35.06
33.25
31.34
29.02
25.98
22.11
17.51
12.45
7.28
2.18
-2.80
-7.76
-12.86
-18.24
-23.95
-29.94
-36.04
-41.85
-46.73
-49.83
-50.23
-47.29
-40.87
-31.48
-20.18
-8.26
3.09
12.99
21.00
26.98
30.99
33.20
33.84
33.24
31.81
30.00
28.19
26.61
25.26
24.03
22.70
21.13
19.29
17.29
15.33
13.61
12.21
10.99
9.63
7.70
4.85
0.97
-3.79
-9.07
-14.47
-19.69
-24.66
-29.46
-34.33
-39.38
-44.55
-49.42
-53.22
-54.99
-53.85
-49.31
-41.51
-31.19
-19.52
-7.77
3.04
12.32
19.83
25.55
29.53
31.79
32.41
31.61
29.82
27.57
25.42
23.63
22.19
20.85
19.31
17.43
15.34
13.29
11.51
10.00
8.45
6.45
3.76
0.36
-3.42
-7.21
-10.76
-14.05
-17.27
-20.70
-24.61
-29.19
-34.45
-40.21
-45.94
-50.77
-53.59
-53.39
-49.64
-42.47
-32.67
-21.37
-9.69
1.50
11.56
19.97
26.28
30.15
31.54
30.87
28.92
26.63
24.74
23.55
22.92
22.39
21.56
20.24
18.58
16.91
15.49
14.43
13.55
12.49
10.87
8.43
5.07
0.94
-3.75
-8.70
-13.69
-18.57
-23.33
-28.11
-33.17
-38.77
-45.01
-51.63
-57.85
-62.57
-64.56
-62.94
-57.49
-48.71
-37.66
-25.66
-13.79
-2.78
7.00
15.40
22.24
27.34
30.54
31.88
31.75
30.77
29.69
29.12
29.31
30.10
31.07
31.68
31.59
30.74
29.26
27.33
24.99
22.08
18.39
13.78
8.37
2.47
-3.46
-9.00
-13.94
-18.27
-22.20
-26.13
-30.38
-35.15
-40.27
-45.09
-48.60
-49.60
-47.18
-40.97
-31.33
-19.23
-6.02
6.94
18.53
27.97
34.93
39.35
41.49
41.72
40.56
38.55
36.20
33.91
31.94
30.35
29.06
27.92
26.78
25.58
24.32
23.05
21.75
20.29
18.43
15.94
12.71
8.77
4.28
-0.49
-5.29
-9.91
-14.19
-18.16
-21.99
-26.02
-30.59
-35.82
-41.36
-46.39
-49.71
-50.19
-47.13
-40.59
-31.34
-20.59
-9.62
0.57
9.41
16.65
22.25
26.21
28.54
29.24
28.53
26.78
24.57
22.49
20.92
20.00
19.54
19.28
18.98
18.56
18.06
17.46
16.63
15.31
13.18
10.10
6.16
1.65
-3.02
-7.51
-11.64
-15.38
-18.79
-22.03
-25.32
-28.90
-32.92
-37.29
-41.60
-45.10
-46.82
-45.94
-41.99
-35.02
-25.52
-14.36
-2.51
9.11
19.58
28.20
34.37
37.79
38.52
37.00
33.92
30.09
26.23
22.86
20.31
18.71
18.05
18.23
19.05
20.19
21.31
22.10
22.36
22.03
21.08
19.49
17.16
14.04
10.21
5.90
1.54
-2.48
-5.95
-8.95
-11.76
-14.80
-18.41
-22.80
-27.91
-33.30
-38.15
-41.34
-41.74
-38.60
-31.91
-22.45
-11.58
-0.75
8.96
16.93
22.99
27.09
29.15
29.12
27.15
23.74
19.65
15.75
12.64
10.53
9.21
8.29
7.38
6.27
4.91
3.29
1.39
-0.84
-3.44
-6.42
-9.73
-13.38
-17.48
-22.20
-27.69
-33.91
-40.61
-47.29
-53.37
-58.44
-62.43
-65.71
-68.98
-72.98
-78.19
-84.56
-91.41
-97.53
-101.44
-101.86
-97.94
-89.58
-77.38
-62.61
-46.90
-32.05
-19.60
-10.57
-5.19
-2.78
-1.91
-0.80
2.26
8.47
18.30
31.52
47.43
65.09
83.56
101.84
118.96
133.96
145.94
154.26
158.69
159.33
156.54
150.73
142.13
130.92
117.22
101.33
83.74
65.16
46.37
28.02
10.55
-5.80
-20.88
-34.50
-46.27
-55.61
-61.83
-64.33
-62.87
-57.73
-49.73
-40.08
-30.12
-21.06
-13.72
-8.48
-5.29
-3.74
-3.22
-3.12
-3.00
-2.71
-2.35
-2.10
-2.07
-2.24
-2.45
-2.63
-2.79
-3.11
-3.71
-4.57
-5.51
-6.31
-6.90
-7.48
-8.40
-9.89
-11.96
-14.26
-16.44
-18.25
-19.85
-21.66
-24.13
-27.41
-31.17
-34.59
-36.52
-35.93
-32.22
-25.44
-16.30
-5.92
4.49
13.95
21.91
28.24
33.04
36.54
38.88
40.14
40.37
39.68
38.24
36.31
34.18
32.09
30.21
28.56
27.05
25.49
23.69
21.50
18.86
15.81
12.47
9.04
5.65
2.32
-1.00
-4.54
-8.51
-13.04
-18.22
-24.05
-30.53
-37.57
-44.88
-51.75
-57.12
-59.73
-58.57
-53.40
-44.87
-34.41
-23.73
-14.20
-6.57
-0.94
2.98
5.52
6.94
7.33
6.86
5.78
4.36
2.88
1.43
0.09
-1.13
-2.10
-2.65
-2.73
-2.49
-2.35
-2.79
-4.13
-6.34
-9.12
-12.02
-14.76
-17.35
-20.00
-23.02
-26.58
-30.69
-35.18
-39.80
-44.07
-47.33
-48.69
-47.28
-42.52
-34.47
-23.88
-12.01
-0.20
10.41
19.10
25.55
29.69
31.59
31.48
29.72
26.88
23.59
20.51
18.09
16.48
15.61
15.20
14.96
14.66
14.15
13.36
12.20
10.57
8.39
5.65
2.48
-0.91
-4.30
-7.62
-11.07
-15.00
-19.79
-25.61
-32.18
-38.79
-44.34
-47.66
-47.76
-44.23
-37.36
-28.13
-17.93
-8.14
0.17
6.50
10.82
13.36
14.37
13.98
12.25
9.31
5.45
1.13
-3.10
-6.79
-9.67
-11.70
-13.02
-13.89
-14.60
-15.42
-16.56
-18.15
-20.21
-22.71
-25.58
-28.76
-32.23
-35.99
-40.04
-44.39
-48.96
-53.51
-57.54
-60.24
-60.65
-57.90
-51.52
-41.69
-29.15
-15.13
-0.94
12.21
23.49
32.42
38.83
42.81
44.56
44.40
42.71
39.96
36.70
33.44
30.63
28.48
26.97
25.93
25.14
24.47
23.83
23.18
22.30
20.92
18.76
15.66
11.69
7.15
2.29
-2.76
-8.19
-14.37
-21.61
-29.88
-38.54
-46.42
-52.05
-54.12
-51.93
-45.64
-36.22
-25.12
-13.84
-3.52
5.19
12.02
17.02
20.31
22.07
22.61
22.34
21.68
21.02
20.60
20.53
20.79
21.35
22.15
23.15
24.29
25.45
26.53
27.42
28.05
28.34
28.20
27.46
25.96
23.51
19.91
14.97
8.51
0.48
-8.81
-18.58
-27.46
-33.80
-36.10
-33.53
-26.19
-15.13
-2.00
11.52
24.08
34.82
43.27
49.10
52.03
51.89
48.83
43.42
36.63
29.56
23.10
17.73
13.45
9.96
6.93
4.14
1.58
-0.77
-3.03
-5.54
-8.74
-12.93
-18.13
-23.98
-29.84
-35.14
-39.69
-43.80
-48.18
-53.58
-60.36
-68.16
-75.85
-81.78
-84.18
-81.71
-73.79
-60.77
-43.88
-24.86
-5.63
12.14
27.29
39.30
48.30
54.88
59.80
63.73
67.01
69.47
70.58
69.70
66.48
61.16
54.63
48.21
43.22
40.55
40.45
42.54
46.06
50.23
54.37
58.03
60.86
62.57
62.94
61.88
59.48
56.03
51.93
47.67
43.76
40.84
39.53
40.37
43.59
48.85
55.10
60.85
64.65
65.50
63.29
58.57
52.21
44.92
37.06
28.70
19.98
11.33
3.43
-3.04
-7.78
-10.96
-13.19
-15.10
-17.06
-19.13
-21.19
-23.16
-25.09
-27.07
-29.13
-31.17
-33.04
-34.64
-36.04
-37.43
-39.03
-41.03
-43.46
-46.18
-48.84
-50.85
-51.37
-49.52
-44.56
-36.27
-25.12
-12.20
1.09
13.48
24.00
32.23
38.05
41.60
43.14
42.98
41.48
39.03
35.97
32.59
29.08
25.60
22.31
19.35
16.81
14.67
12.81
11.09
9.42
7.78
6.17
4.58
2.93
1.07
-1.22
-4.13
-7.84
-12.51
-18.20
-24.83
-31.98
-38.87
-44.50
-47.84
-48.18
-45.37
-39.85
-32.56
-24.61
-16.98
-10.37
-5.15
-1.40
0.95
2.08
2.24
1.73
0.91
0.15
-0.21
0.06
1.01
2.45
4.04
5.34
5.95
5.61
4.22
1.85
-1.29
-4.92
-8.83
-12.84
-16.88
-21.01
-25.31
-29.89
-34.80
-40.07
-45.56
-51.04
-56.00
-59.69
-61.21
-59.77
-55.08
-47.45
-37.85
-27.55
-17.66
-8.86
-1.28
5.23
10.86
15.54
19.01
20.94
21.23
20.07
18.00
15.68
13.71
12.50
12.11
12.31
12.66
12.72
12.17
10.94
9.15
6.97
4.55
1.90
-0.99
-4.16
-7.57
-11.12
-14.72
-18.37
-21.99
-25.38
-28.00
-29.01
-27.55
-23.13
-15.91
-6.76
2.96
11.94
19.27
24.64
28.20
30.33
31.35
31.42
30.66
29.16
27.12
24.81
22.47
20.28
18.34
16.72
15.45
14.49
13.69
12.81
11.61
9.92
7.70
5.02
1.94
-1.45
-5.17
-9.19
-13.48
-18.04
-22.90
-28.07
-33.36
-38.26
-41.84
-42.99
-40.80
-35.02
-26.22
-15.67
-4.88
4.86
12.84
18.90
23.26
26.22
28.00
28.72
28.50
27.56
26.19
24.78
23.59
22.76
22.18
21.61
20.80
19.60
18.00
16.12
14.02
11.68
8.96
5.73
2.01
-2.06
-6.21
-10.19
-13.93
-17.56
-21.38
-25.75
-30.90
-36.85
-43.37
-49.91
-55.75
-60.15
-62.48
-62.49
-60.33
-56.46
-51.48
-45.90
-39.95
-33.64
-26.92
-19.80
-12.52
-5.55
0.59
5.53
9.18
11.80
13.87
15.83
17.95
20.15
22.14
23.58
24.28
24.37
24.08
23.68
23.19
22.37
20.79
18.05
13.97
8.67
2.59
-3.66
-9.51
-14.55
-18.65
-21.94
-24.80
-27.70
-31.02
-34.95
-39.29
-43.42
-46.42
-47.30
-45.32
-40.28
-32.60
-23.22
-13.23
-3.56
5.27
13.02
19.60
24.81
28.45
30.41
30.92
30.50
29.84
29.45
29.49
29.79
30.02
29.95
29.57
28.99
28.32
27.58
26.63
25.36
23.68
21.58
19.09
16.24
13.02
9.45
5.59
1.54
-2.57
-6.68
-10.77
-14.83
-18.82
-22.67
-26.30
-29.76
-33.27
-37.17
-41.74
-46.91
-52.15
-56.43
-58.51
-57.39
-52.68
-44.82
-34.89
-24.24
-13.94
-4.63
3.54
10.60
16.57
21.31
24.68
26.69
27.60
27.94
28.20
28.69
29.49
30.43
31.31
31.95
32.31
32.35
32.12
31.60
30.82
29.80
28.49
26.84
24.73
22.08
18.84
15.11
11.04
6.86
2.79
-1.06
-4.64
-8.07
-11.50
-15.15
-19.19
-23.74
-28.82
-34.28
-39.68
-44.36
-47.40
-47.92
-45.35
-39.65
-31.34
-21.40
-10.96
-1.01
7.77
15.04
20.69
24.83
27.56
29.07
29.54
29.17
28.18
26.91
25.80
25.23
25.43
26.29
27.41
28.19
28.21
27.36
25.85
24.13
22.52
21.03
19.41
17.25
14.25
10.39
5.93
1.26
-3.21
-7.22
-10.68
-13.67
-16.33
-18.88
-21.54
-24.54
-28.15
-32.52
-37.56
-42.76
-47.16
-49.51
-48.70
-44.13
-36.10
-25.66
-14.31
-3.47
5.93
13.59
19.62
24.32
27.91
30.44
31.89
32.32
31.92
31.03
30.06
29.35
29.09
29.27
29.69
30.03
30.01
29.41
28.19
26.47
24.43
22.27
20.00
17.53
14.59
10.93
6.42
1.21
-4.34
-9.75
-14.64
-18.86
-22.55
-25.99
-29.49
-33.24
-37.28
-41.43
-45.33
-48.40
-49.92
-49.15
-45.61
-39.27
-30.66
-20.73
-10.60
-1.21
6.81
13.26
18.13
21.55
23.58
24.34
24.02
22.98
21.66
20.50
19.76
19.51
19.64
20.00
20.41
20.77
21.01
21.06
20.80
20.10
18.86
17.02
14.52
11.36
7.60
3.43
-0.88
-5.00
-8.67
-11.84
-14.68
-17.47
-20.57
-24.21
-28.51
-33.40
-38.67
-43.81
-48.05
-50.42
-49.95
-46.06
-38.87
-29.16
-18.22
-7.32
2.53
10.79
17.28
21.99
24.98
26.34
26.29
25.28
23.88
22.59
21.72
21.27
20.99
20.56
19.73
18.43
16.78
15.05
13.52
12.34
11.42
10.47
8.99
6.54
2.90
-1.83
-7.16
-12.49
-17.24
-21.12
-24.26
-27.07
-30.06
-33.66
-38.04
-43.09
-48.52
-53.80
-58.20
-60.86
-60.87
-57.55
-50.78
-41.14
-29.89
-18.57
-8.49
-0.37
5.68
10.04
13.14
15.26
16.48
16.85
16.60
16.10
15.72
15.63
15.65
15.39
14.50
12.97
11.21
9.81
9.18
9.33
9.87
10.23
9.95
8.92
7.38
5.70
4.18
2.84
1.40
-0.58
-3.55
-7.83
-13.50
-20.33
-27.76
-34.88
-40.56
-43.63
-43.22
-38.99
-31.29
-21.14
-9.92
0.99
10.54
18.22
23.98
28.00
30.57
31.92
32.22
31.67
30.50
28.96
27.33
25.86
24.68
23.82
23.20
22.72
22.32
21.98
21.70
21.40
20.85
19.70
17.63
14.48
10.41
5.82
1.20
-3.12
-7.19
-11.34
-16.08
-21.76
-28.32
-35.24
-41.49
-45.84
-47.13
-44.62
-38.26
-28.75
-17.33
-5.48
5.49
14.65
21.59
26.26
28.89
29.79
29.29
27.73
25.48
22.93
20.36
18.01
16.02
14.46
13.34
12.57
11.99
11.34
10.31
8.70
6.35
3.22
-0.64
-5.16
-10.16
-15.37
-20.50
-25.25
-29.51
-33.50
-37.68
-42.59
-48.52
-55.16
-61.51
-66.09
-67.43
-64.53
-57.25
-46.41
-33.51
-20.23
-8.07
2.09
9.93
15.56
19.31
21.57
22.68
22.98
22.80
22.48
22.28
22.37
22.81
23.54
24.43
25.23
25.64
25.35
24.11
21.78
18.40
14.20
9.48
4.53
-0.45
-5.37
-10.19
-14.96
-19.76
-24.78
-30.27
-36.50
-43.58
-51.17
-58.38
-63.85
-66.07
-64.00
-57.37
-46.93
-34.08
-20.49
-7.57
3.67
12.65
19.04
22.80
24.11
23.53
21.88
20.09
18.90
18.67
19.41
20.88
22.87
25.18
27.69
30.16
32.19
33.30
33.06
31.28
28.09
23.86
19.06
14.09
9.13
4.20
-0.86
-6.24
-12.18
-18.84
-26.29
-34.33
-42.26
-48.91
-52.81
-52.66
-47.89
-38.94
-27.17
-14.46
-2.51
7.63
15.59
21.52
25.68
28.17
29.05
28.43
26.79
24.85
23.44
23.18
24.31
26.72
30.19
34.60
39.99
46.44
53.79
61.43
68.24
72.82
73.84
70.43
62.52
50.80
36.59
21.47
6.96
-5.85
-16.40
-24.81
-31.69
-37.99
-44.53
-51.70
-59.11
-65.61
-69.58
-69.34
-63.66
-52.01
-34.76
-13.02
11.44
36.52
60.05
80.14
95.52
105.79
111.38
113.36
113.10
111.93
110.89
110.64
111.41
112.99
114.72
115.60
114.51
110.56
103.25
92.54
78.69
62.02
42.80
21.27
-2.16
-26.64
-50.82
-73.02
-91.66
-105.67
-114.88
-119.98
-122.16
-122.44
-121.22
-118.09
-112.09
-102.38
-88.74
-71.80
-52.93
-33.79
-16.00
-0.95
10.15
16.33
16.93
11.94
2.36
-9.71
-21.43
-29.93
-33.09
-29.98
-21.03
-7.47
9.17
27.52
46.62
65.70
83.95
100.35
113.87
123.69
129.59
131.94
131.48
128.93
124.72
118.98
111.63
102.64
92.14
80.41
67.85
54.86
41.96
29.81
19.30
11.32
6.61
5.44
7.50
11.99
17.72
23.43
27.97
30.51
30.58
28.13
23.47
17.10
9.58
1.42
-6.92
-15.01
-22.27
-28.12
-32.11
-34.15
-34.68
-34.56
-34.72
-35.77
-37.74
-40.08
-42.06
-43.10
-43.13
-42.58
-42.12
-42.29
-43.38
-45.34
-47.98
-51.14
-54.59
-57.91
-60.29
-60.59
-57.65
-50.85
-40.49
-27.86
-14.87
-3.38
5.43
11.28
14.62
16.17
16.49
15.69
13.70
10.61
6.79
2.90
-0.46
-3.04
-5.07
-7.02
-9.46
-12.62
-16.27
-19.98
-23.36
-26.32
-29.08
-32.10
-35.72
-40.26
-45.73
-51.84
-58.17
-64.46
-70.76
-77.45
-84.99
-93.59
-103.36
-113.54
-122.58
-128.62
-130.35
-127.59
-121.34
-113.33
-105.55
-100.55
-99.82
-103.32
-109.71
-117.08
-123.82
-128.82
-131.47
-131.64
-130.86
-130.29
-129.99
-128.96
-125.95
-120.18
-111.23
-98.75
-82.60
-64.85
-47.54
-32.07
-19.09
-9.01
-2.50
0.17
-0.49
7.92
31.00
65.14
99.81
125.55
138.88
141.05
135.85
127.56
119.45
111.39
102.57
92.78
81.55
70.69
61.25
53.53
47.59
43.36
39.55
35.65
32.31
31.00
33.07
38.58
46.60
56.36
66.21
73.11
74.98
71.62
64.73
57.04
50.95
47.90
48.71
53.00
58.97
64.44
67.56
67.38
63.96
59.24
52.75
43.99
32.45
17.88
1.01
-16.36
-31.68
-42.43
-47.15
-46.12
-40.85
-33.82
-27.65
-24.15
-24.51
-28.60
-35.16
-42.39
-48.72
-52.89
-54.23
-52.59
-48.17
-41.52
-33.45
-25.03
-17.28
-10.93
-5.90
-1.70
2.08
5.28
7.10
6.66
3.49
-2.12
-9.36
-17.17
-24.88
-32.28
-39.36
-45.87
-50.99
-53.43
-52.02
-46.28
-36.76
-24.98
-13.02
-2.69
5.10
10.83
16.18
23.50
34.72
50.42
69.31
88.57
104.86
115.73
120.62
120.91
118.98
116.94
115.53
114.02
110.93
105.14
96.51
85.90
74.34
62.24
49.17
34.20
16.65
-3.26
-24.41
-45.23
-64.18
-80.27
-92.95
-102.02
-107.35
-108.82
-106.31
-99.77
-89.28
-75.05
-57.50
-37.34
-15.66
6.10
26.35
43.70
57.33
67.11
73.54
77.44
79.66
80.78
81.10
80.67
79.42
77.29
74.27
70.44
65.95
60.97
55.73
50.45
45.39
40.69
36.40
32.37
28.29
23.78
18.52
12.46
5.87
-0.63
-6.16
-9.85
-10.93
-8.98
-3.97
3.69
13.24
23.74
34.15
43.55
51.27
56.93
60.42
61.82
61.35
59.22
55.62
50.75
44.83
38.09
30.72
22.90
14.75
6.34
-2.32
-11.18
-20.17
-29.12
-37.81
-45.95
-53.29
-59.72
-65.41
-70.73
-76.16
-82.16
-88.81
-95.73
-102.07
-106.69
-108.48
-106.69
-101.10
-92.06
-80.37
-67.12
-53.46
-40.44
-28.95
-19.63
-12.87
-8.79
-7.25
-7.85
-9.97
-12.89
-15.87
-18.31
-19.92
-20.80
-21.31
-21.87
-22.73
-23.85
-25.00
-25.92
-26.60
-27.27
-28.28
-29.95
-32.41
-35.66
-39.62
-44.13
-48.95
-53.47
-56.83
-57.92
-55.79
-50.00
-40.83
-29.19
-16.37
-3.61
8.06
17.94
25.62
30.87
33.55
33.70
31.52
27.51
22.41
17.10
12.34
8.56
5.80
3.76
2.05
0.38
-1.27
-2.75
-3.87
-4.64
-5.25
-6.09
-7.59
-10.13
-13.98
-19.19
-25.48
-32.14
-38.00
-41.62
-41.67
-37.34
-28.73
-16.76
-2.96
11.01
23.81
34.64
43.11
49.08
52.48
53.27
51.54
47.71
42.55
37.05
32.15
28.42
25.89
24.14
22.54
20.64
18.28
15.67
13.17
10.99
9.03
6.85
3.83
-0.57
-6.62
-14.20
-22.75
-31.32
-38.65
-43.36
-44.27
-40.67
-32.58
-20.79
-6.73
7.98
21.83
33.74
43.02
49.37
52.72
53.22
51.22
47.35
42.44
37.38
32.93
29.56
27.34
26.02
25.19
24.39
23.31
21.77
19.79
17.54
15.15
12.74
10.19
7.24
3.42
-1.69
-8.30
-16.16
-24.32
-31.29
-35.34
-34.94
-29.32
-18.73
-4.35
12.08
28.67
43.89
56.67
66.45
73.00
76.34
76.71
74.58
70.60
65.60
60.43
55.81
52.07
49.22
46.91
44.61
41.81
38.15
33.54
28.16
22.33
16.33
10.28
4.20
-1.99
-8.49
-15.56
-23.57
-32.84
-43.51
-55.38
-67.60
-78.55
-86.27
-89.13
-86.53
-79.14
-68.60
-56.89
-45.88
-36.67
-29.38
-23.57
-18.92
-15.64
-14.21
-14.91
-17.48
-21.37
-25.64
-28.95
-30.25
-29.28
-26.82
-24.27
-22.72
-22.66
-24.32
-27.09
-29.43
-29.39
-25.28
-16.24
-2.15
16.84
40.10
66.13
88.83
101.23
99.60
86.35
67.32
47.26
28.42
13.60
1.07
-9.69
-17.50
-20.57
-17.89
-9.92
0.56
10.90
18.94
22.92
22.58
18.97
13.77
8.51
3.84
-0.30
-3.99
-7.18
-9.91
-11.63
-11.58
-9.13
-4.17
2.75
10.65
18.67
26.14
32.39
37.11
40.28
42.08
42.82
42.77
42.20
41.37
40.42
39.14
37.26
34.43
30.28
24.56
17.17
8.33
-1.22
-10.22
-17.14
-20.43
-19.08
-13.06
-3.45
7.84
18.74
27.71
34.18
38.62
42.14
45.94
50.87
57.19
64.63
72.51
79.98
86.24
90.77
93.51
94.88
95.71
96.86
98.85
101.51
103.95
104.74
102.35
95.68
84.40
69.05
50.83
31.30
12.01
-5.86
-21.67
-35.37
-47.47
-58.76
-70.02
-81.69
-93.55
-104.73
-113.94
-119.96
-122.06
-120.29
-115.37
-108.36
-100.33
-92.10
-84.19
-76.90
-70.37
-64.64
-59.68
-55.41
-51.76
-48.63
-45.96
-43.66
-41.60
-39.67
-37.85
-36.23
-35.10
-34.83
-35.78
-38.17
-41.96
-46.88
-52.42
-58.04
-63.26
-67.80
-71.64
-74.92
-77.89
-80.75
-83.67
-86.70
-89.74
-92.47
-94.20
-93.93
-90.60
-83.52
-72.74
-59.16
-44.43
-30.37
-18.55
-9.82
-4.27
-1.38
-0.50
-1.01
-2.42
-4.31
-6.35
-8.29
-9.98
-11.31
-12.24
-12.91
-13.46
-14.05
-14.78
-15.77
-17.24
-19.37
-22.12
-25.24
-28.43
-31.40
-33.91
-35.94
-37.72
-40.06
-43.48
-47.83
-52.04
-55.09
-55.97
-53.86
-48.35
-39.62
-29.19
-18.52
-8.54
0.66
8.27
13.43
15.51
14.23
9.49
0.23
-13.48
-30.00
-45.96
-59.50
-69.66
-76.17
-79.21
-79.41
-78.98
-79.03
-78.87
-75.92
-69.48
-59.72
-46.91
-31.30
-3.74
36.76
82.83
118.62
143.41
160.24
172.23
180.61
186.00
188.64
187.00
180.67
171.04
161.22
152.08
143.17
133.49
122.31
109.45
93.96
75.98
56.65
37.85
19.33
0.18
-19.85
-39.33
-55.52
-66.38
-70.40
-66.91
-56.04
-39.93
-21.18
-2.05
16.07
32.11
44.27
51.19
53.14
52.57
52.61
56.01
63.53
73.53
82.25
84.64
77.00
58.99
33.76
6.02
-19.67
-40.49
-55.04
-59.83
-52.86
-36.32
-15.94
2.75
15.88
23.63
26.41
24.84
19.84
12.23
2.92
-6.84
-15.62
-22.35
-26.61
-28.86
-29.89
-30.46
-31.48
-33.41
-35.72
-37.19
-36.72
-33.98
-29.81
-25.58
-22.53
-21.64
-23.14
-26.37
-30.14
-33.44
-35.87
-37.84
-40.18
-43.60
-48.40
-54.08
-59.22
-61.89
-60.41
-53.98
-43.01
-28.87
-13.29
2.08
16.04
27.82
36.92
42.89
45.32
44.05
39.36
32.09
23.46
14.81
7.28
1.69
-1.63
-2.84
-2.46
-1.29
-0.14
0.40
0.06
-1.09
-2.78
-4.78
-7.01
-9.62
-12.85
-17.02
-22.42
-29.30
-37.86
-48.07
-59.51
-71.14
-81.29
-87.91
-89.08
-83.53
-71.16
-53.08
-31.38
-8.63
12.78
31.04
45.18
55.00
60.85
63.45
63.61
62.19
60.01
57.83
56.25
55.65
56.15
57.58
59.62
61.88
64.03
65.80
66.96
67.25
66.37
64.07
60.19
54.84
48.28
40.87
32.77
23.83
13.61
1.60
-12.24
-27.19
-41.64
-53.34
-60.11
-60.46
-54.14
-42.18
-26.52
-9.44
6.99
21.26
32.36
39.73
43.09
42.48
38.31
31.45
23.20
15.01
8.18
3.56
1.48
1.68
3.58
6.33
8.98
10.66
10.66
8.61
4.62
-0.89
-7.23
-13.78
-20.16
-26.33
-32.60
-39.44
-47.26
-56.17
-65.62
-74.36
-80.45
-81.79
-76.83
-65.32
-48.65
-29.70
-11.95
1.67
9.71
12.53
11.71
9.12
6.03
2.70
-1.30
-6.43
-12.62
-19.02
-24.34
-27.36
-27.34
-24.27
-18.69
-11.51
-3.77
3.41
8.88
11.60
10.85
6.46
-1.05
-10.60
-20.75
-30.08
-37.58
-42.77
-45.83
-47.27
-47.68
-47.36
-46.09
-43.12
-37.35
-27.70
-13.56
4.86
26.46
49.39
71.51
90.97
106.62
118.10
125.66
129.89
131.38
130.65
128.14
124.35
119.81
115.07
110.55
106.42
102.64
98.97
95.16
90.99
86.21
80.54
73.67
65.41
55.86
45.66
35.95
28.14
23.44
22.21
23.67
25.86
26.23
22.47
13.31
-0.89
-18.23
-35.76
-50.44
-59.97
-63.40
-60.97
-53.81
-43.28
-30.77
-17.60
-5.33
4.24
9.36
8.92
3.05
-6.74
-17.92
-27.78
-34.26
-36.35
-34.05
-27.89
-18.53
-6.53
7.44
22.43
37.00
49.39
58.03
62.00
61.46
57.58
52.07
46.49
41.58
37.13
32.19
25.72
17.16
6.81
-4.46
-15.55
-25.55
-33.90
-40.30
-44.56
-46.39
-45.45
-41.46
-34.34
-24.34
-12.07
1.48
15.09
27.46
37.48
44.49
48.40
49.62
48.86
46.84
44.14
41.20
38.34
35.84
33.95
32.81
32.43
32.71
33.41
34.24
34.93
35.27
35.17
34.75
34.24
33.98
34.28
35.32
37.15
39.68
42.64
45.50
47.37
47.09
43.37
35.23
22.29
5.04
-15.19
-36.46
-56.58
-73.49
-85.69
-92.45
-93.96
-91.24
-85.87
-79.66
-74.29
-71.10
-70.86
-73.75
-79.34
-86.72
-94.70
-102.12
-108.24
-112.72
-115.62
-116.99
-116.70
-114.39
-109.71
-102.65
-93.79
-84.29
-75.51
-68.52
-63.70
-60.72
-58.80
-57.27
-55.86
-54.78
-54.31
-54.30
-53.97
-52.12
-47.91
-41.59
-34.69
-29.39
-27.32
-28.55
-31.33
-32.90
-30.77
-23.86
-12.76
0.77
14.70
27.52
38.39
46.94
52.99
56.42
57.35
56.28
54.07
51.63
49.54
47.91
46.54
45.19
43.90
43.00
42.95
44.11
46.56
50.08
54.17
58.03
60.67
60.95
57.91
51.02
40.52
27.39
13.09
-0.87
-13.32
-23.62
-31.48
-36.83
-39.65
-40.02
-38.21
-34.66
-29.86
-24.09
-17.30
-9.16
0.60
11.81
23.71
35.04
44.50
51.23
55.01
56.27
55.79
54.26
52.16
49.73
47.19
44.79
42.80
41.26
39.78
37.66
34.07
28.49
21.06
12.50
3.93
-3.64
-9.57
-13.86
-17.00
-19.83
-23.16
-27.56
-33.19
-39.76
-46.67
-53.18
-58.55
-62.15
-63.44
-61.93
-57.37
-49.77
-39.58
-27.68
-15.25
-3.54
6.40
13.86
18.53
20.44
19.87
17.29
13.24
8.22
2.65
-3.14
-8.83
-14.06
-18.48
-21.80
-23.94
-25.13
-25.88
-26.78
-28.37
-30.99
-34.71
-39.32
-44.42
-49.51
-54.11
-57.98
-61.21
-64.21
-67.45
-71.12
-74.90
-77.90
-78.94
-77.04
-71.70
-63.10
-51.92
-39.07
-25.44
-11.82
1.07
12.50
21.75
28.21
31.56
31.96
30.02
26.64
22.77
19.17
16.27
14.17
12.78
11.95
11.55
11.41
11.25
10.65
9.13
6.36
2.36
-2.54
-7.74
-12.80
-17.56
-22.32
-27.62
-34.03
-41.76
-50.47
-59.26
-66.80
-71.64
-72.59
-68.96
-60.78
-48.81
-34.36
-18.99
-4.17
9.09
20.36
29.70
37.44
43.74
48.34
50.56
49.60
45.11
37.59
28.51
19.88
13.70
11.27
12.91
18.01
25.40
33.59
41.06
46.28
47.94
45.18
37.99
27.34
15.03
3.01
-7.32
-15.51
-21.98
-27.40
-32.02
-35.30
-36.08
-33.24
-26.30
-15.76
-2.98
10.34
22.69
33.00
40.77
45.87
48.37
48.45
46.42
42.72
37.96
32.84
28.11
24.38
22.03
21.04
21.04
21.40
21.47
20.91
19.71
18.22
16.80
15.58
14.33
12.52
9.62
5.42
0.07
-6.09
-12.82
-20.19
-28.46
-37.66
-47.21
-55.76
-61.61
-63.19
-59.73
-51.47
-39.42
-24.90
-9.14
6.79
22.04
35.71
47.00
55.32
60.49
62.86
63.15
62.26
60.85
59.33
57.79
56.18
54.39
52.32
49.84
46.89
43.48
39.69
35.79
32.21
29.34
27.36
25.96
24.40
21.99
18.35
13.47
7.81
2.01
-3.45
-8.41
-13.01
-17.35
-20.77
-21.99
-19.84
-13.52
-3.08
10.31
24.59
37.09
45.20
47.75
45.07
38.33
29.64
21.38
15.47
12.86
13.06
14.11
14.12
11.27
3.91
-8.49
-24.98
-43.42
-59.58
-67.90
-69.12
-65.70
-57.90
-46.80
-33.35
-18.24
-2.10
14.23
29.18
40.59
47.19
48.47
44.34
35.62
23.86
11.11
-0.48
-9.20
-14.22
-15.04
-12.03
-6.90
-1.84
1.15
0.86
-2.81
-9.13
-17.02
-25.05
-32.08
-37.67
-41.66
-44.03
-44.77
-43.92
-41.73
-38.76
-35.59
-32.68
-30.41
-28.74
-27.29
-25.60
-23.44
-20.95
-18.59
-16.86
-16.03
-16.07
-16.59
-17.03
-16.94
-16.16
-14.91
-13.70
-13.12
-13.53
-14.87
-16.55
-17.58
-16.83
-13.42
-6.94
2.34
13.55
25.49
36.89
46.70
54.23
59.19
61.64
61.82
60.10
56.82
52.39
47.21
41.73
36.42
31.69
27.76
24.65
22.22
20.27
18.63
17.25
16.17
15.38
14.80
14.21
13.35
11.96
9.92
7.26
4.15
0.82
-2.54
-5.80
-8.95
-12.09
-15.40
-19.11
-23.38
-28.15
-33.00
-37.20
-39.77
-39.79
-36.70
-30.56
-22.07
-12.33
-2.59
6.12
13.17
18.32
21.59
23.14
23.20
21.99
19.87
17.31
14.89
13.16
12.49
12.85
13.89
14.97
15.48
15.13
14.06
12.74
11.66
11.00
10.50
9.56
7.60
4.45
0.44
-3.69
-7.17
-9.45
-10.49
-10.65
-10.66
-11.35
-13.45
-17.45
-23.34
-30.60
-38.20
-44.82
-49.18
-50.44
-48.31
-43.17
-35.86
-27.43
-18.83
-10.80
-3.72
2.28
7.33
11.63
15.35
18.62
21.53
24.20
26.78
29.41
32.13
34.98
37.94
41.06
44.45
48.19
52.22
56.28
59.91
62.54
63.79
63.47
61.65
58.57
54.57
49.97
45.12
40.33
35.76
31.37
26.90
21.92
16.00
8.90
0.78
-7.75
-15.65
-21.66
-24.73
-24.34
-20.74
-14.89
-8.17
-1.91
3.02
6.29
8.12
8.96
9.27
9.34
9.30
9.14
8.78
8.17
7.27
6.14
4.97
4.12
4.06
5.18
7.60
10.95
14.35
16.57
16.48
13.44
7.53
-0.60
-10.02
-19.94
-29.94
-39.98
-50.23
-60.90
-72.19
-84.17
-96.80
-109.73
-122.14
-132.86
-140.57
-144.33
-143.89
-139.84
-133.36
-125.81
-118.31
-111.63
-106.26
-102.47
-100.36
-99.74
-100.02
-100.31
-99.65
-97.34
-93.12
-87.14
-79.85
-71.82
-63.64
-55.84
-48.74
-42.29
-36.05
-29.28
-21.36
-12.15
-2.12
7.72
16.33
23.05
27.76
30.79
32.45
32.92
32.03
29.57
25.60
20.66
15.84
12.64
12.55
16.62
25.08
37.31
52.09
67.97
83.68
98.25
110.90
120.90
127.50
130.14
128.75
123.98
117.13
109.79
103.39
98.85
96.40
95.71
96.10
96.66
96.42
94.45
89.92
82.36
71.74
58.46
43.35
27.41
11.59
-3.30
-16.85
-29.00
-40.10
-50.85
-62.06
-74.36
-87.83
-101.80
-114.75
-124.71
-129.77
-128.66
-121.21
-108.46
-92.37
-75.34
-59.57
-46.61
-37.10
-30.76
-26.64
-23.57
-20.62
-17.33
-13.86
-10.70
-8.36
-6.96
-6.16
-5.26
-3.61
-0.82
2.99
7.32
11.45
14.78
16.88
17.59
16.92
15.00
12.06
8.37
4.23
-0.15
-4.75
-9.89
-16.02
-23.60
-32.59
-42.24
-50.95
-56.68
-57.50
-52.35
-41.41
-26.13
-8.74
8.38
23.21
34.48
41.67
44.83
44.51
41.58
37.14
32.43
28.50
26.05
25.29
25.99
27.60
29.56
31.39
32.77
33.50
33.43
32.48
30.61
27.88
24.44
20.55
16.46
12.42
8.53
4.70
0.71
-3.87
-9.45
-16.34
-24.49
-33.35
-41.84
-48.52
-51.89
-50.84
-44.94
-34.66
-21.24
-6.37
8.21
21.04
31.29
38.61
43.10
45.02
44.73
42.67
39.35
35.48
31.77
28.88
27.25
26.97
27.90
29.65
31.72
33.53
34.51
34.13
32.12
28.53
23.74
18.36
12.97
7.95
3.46
-0.54
-4.18
-7.63
-11.08
-14.71
-18.50
-22.08
-24.62
-25.01
-22.18
-15.63
-5.71
6.38
18.95
30.36
39.49
45.88
49.62
51.07
50.60
48.50
45.07
40.66
35.81
31.08
27.00
23.86
21.62
19.95
18.38
16.46
13.97
11.01
7.89
5.01
2.67
0.93
-0.42
-1.76
-3.48
-5.93
-9.30
-13.62
-18.70
-24.13
-29.16
-32.83
-34.17
-32.42
-27.34
-19.36
-9.44
1.19
11.35
20.18
27.19
32.20
35.18
36.15
35.16
32.37
28.10
22.92
17.57
12.87
9.52
7.97
8.28
10.11
12.85
15.82
18.41
20.31
21.45
21.92
21.78
21.00
19.49
17.16
14.09
10.44
6.39
2.00
-2.78
-7.97
-13.29
-18.06
-21.25
-21.90
-19.47
-14.11
-6.61
1.87
10.17
17.42
23.11
27.05
29.26
29.91
29.35
28.05
26.59
25.46
24.99
25.29
26.30
27.87
29.77
31.72
33.36
34.25
34.00
32.31
29.10
24.53
18.93
12.80
6.60
0.70
-4.65
-9.39
-13.62
-17.50
-21.26
-25.13
-29.14
-33.14
-36.70
-39.07
-39.46
-37.23
-32.23
-24.95
-16.39
-7.80
-0.20
5.81
10.08
12.78
14.10
14.17
13.12
11.13
8.52
5.67
2.90
0.31
-2.16
-4.65
-7.20
-9.72
-11.96
-13.71
-14.92
-15.76
-16.49
-17.45
-18.82
-20.63
-22.78
-25.11
-27.42
-29.53
-31.30
-32.60
-33.42
-33.90
-34.31
-34.96
-36.03
-37.38
-38.53
-38.72
-37.23
-33.62
-27.98
-20.89
-13.20
-5.75
0.91
6.58
11.29
15.15
18.16
20.22
21.23
21.24
20.58
19.77
19.30
19.40
19.94
20.43
20.30
19.17
17.04
14.21
11.16
8.28
5.71
3.36
0.96
-1.70
-4.69
-7.93
-11.31
-14.72
-18.14
-21.53
-24.84
-27.93
-30.72
-33.14
-35.22
-36.98
-38.27
-38.70
-37.74
-34.91
-30.02
-23.37
-15.69
-7.85
-0.63
5.49
10.38
14.10
16.76
18.44
19.12
18.80
17.58
15.69
13.50
11.44
9.79
8.63
7.80
6.95
5.74
4.04
1.93
-0.25
-2.16
-3.57
-4.55
-5.37
-6.42
-7.94
-9.99
-12.47
-15.14
-17.83
-20.47
-23.04
-25.58
-28.05
-30.40
-32.56
-34.55
-36.33
-37.82
-38.70
-38.43
-36.44
-32.33
-26.11
-18.29
-9.69
-1.26
6.21
12.22
16.58
19.27
20.41
20.14
18.71
16.46
13.83
11.31
9.33
8.16
7.85
8.18
8.73
9.07
8.91
8.17
7.03
5.75
4.53
3.41
2.28
0.92
-0.85
-3.13
-5.88
-8.94
-12.10
-15.12
-17.85
-20.32
-22.77
-25.59
-29.17
-33.57
-38.37
-42.62
-45.18
-45.02
-41.63
-35.13
-26.25
-16.05
-5.58
4.26
12.89
19.96
25.28
28.85
30.76
31.25
30.74
29.70
28.62
27.83
27.46
27.40
27.45
27.39
27.08
26.49
25.69
24.73
23.64
22.39
20.94
19.24
17.26
14.91
12.10
8.80
5.06
1.04
-2.99
-6.77
-10.14
-13.03
-15.43
-17.48
-19.39
-21.45
-23.89
-26.77
-29.80
-32.28
-33.28
-31.93
-27.74
-20.82
-11.82
-1.73
8.33
17.46
25.01
30.66
34.33
36.09
36.13
34.73
32.29
29.22
26.00
23.08
20.81
19.44
18.99
19.27
19.88
20.37
20.35
19.64
18.27
16.43
14.30
12.00
9.52
6.80
3.78
0.46
-3.11
-6.88
-10.77
-14.71
-18.55
-22.11
-25.20
-27.75
-29.80
-31.52
-33.18
-35.04
-37.34
-40.06
-42.89
-45.08
-45.65
-43.63
-38.39
-29.96
-18.98
-6.63
5.72
16.86
25.89
32.40
36.38
38.11
37.96
36.33
33.64
30.33
26.93
24.01
22.07
21.33
21.72
22.83
24.14
25.26
26.01
26.36
26.31
25.72
24.34
21.93
18.41
13.90
8.73
3.25
-2.27
-7.66
-12.88
-17.81
-22.27
-26.00
-28.81
-30.69
-31.96
-33.13
-34.70
-36.91
-39.53
-41.85
-42.91
-41.77
-37.85
-31.13
-22.12
-11.70
-0.94
9.18
17.90
24.68
29.27
31.61
31.83
30.29
27.54
24.21
21.00
18.47
16.95
16.52
17.00
18.05
19.29
20.44
21.28
21.78
22.00
22.04
21.92
21.53
20.65
19.01
16.45
13.07
9.20
5.27
1.61
-1.67
-4.73
-7.83
-11.28
-15.21
-19.61
-24.30
-28.97
-33.10
-35.99
-36.92
-35.22
-30.65
-23.44
-14.39
-4.63
4.69
12.64
18.75
22.93
25.32
26.14
25.55
23.79
21.14
18.07
15.14
12.76
11.08
9.90
8.85
7.63
6.23
4.89
3.98
3.67
3.84
4.08
3.94
3.12
1.57
-0.53
-2.97
-5.60
-8.40
-11.43
-14.70
-18.27
-22.11
-26.13
-30.14
-33.71
-36.22
-36.96
-35.31
-31.04
-24.46
-16.33
-7.64
0.62
7.74
13.29
17.12
19.22
19.70
18.86
17.18
15.39
14.28
14.53
16.46
19.98
24.56
29.50
34.15
38.02
40.87
42.59
43.13
42.46
40.49
37.20
32.69
27.22
21.16
14.93
8.92
3.30
-1.94
-7.03
-12.20
-17.55
-22.86
-27.55
-30.80
-31.88
-30.36
-26.31
-20.29
-13.16
-5.82
0.99
6.77
11.24
14.24
15.70
15.70
14.41
12.16
9.37
6.34
3.21
-0.06
-3.58
-7.35
-11.14
-14.54
-17.19
-18.96
-20.03
-20.82
-21.72
-22.93
-24.34
-25.73
-26.88
-27.72
-28.38
-29.09
-30.05
-31.30
-32.77
-34.24
-35.42
-35.99
-35.60
-33.94
-30.72
-25.86
-19.49
-12.06
-4.22
3.24
9.62
14.43
17.52
18.94
18.88
17.57
15.26
12.20
8.79
5.47
2.66
0.62
-0.56
-1.00
-0.98
-0.76
-0.56
-0.50
-0.56
-0.68
-0.75
-0.70
-0.57
-0.48
-0.69
-1.45
-2.99
-5.40
-8.67
-12.69
-17.28
-22.08
-26.58
-30.13
-32.02
-31.71
-28.99
-24.09
-17.64
-10.47
-3.41
2.89
8.00
11.68
13.86
14.56
13.95
12.34
10.17
7.86
5.80
4.21
3.14
2.57
2.35
2.40
2.55
2.71
2.79
2.75
2.51
2.00
1.12
-0.19
-1.90
-3.90
-6.04
-8.27
-10.67
-13.43
-16.70
-20.35
-23.85
-26.34
-26.93
-24.96
-20.36
-13.56
-5.44
3.02
10.92
17.60
22.67
25.86
27.07
26.25
23.61
19.55
14.76
10.13
6.52
4.53
4.34
5.65
7.76
9.87
11.27
11.58
10.80
9.11
6.81
4.15
1.23
-1.82
-4.92
-7.96
-10.95
-13.99
-17.27
-20.83
-24.43
-27.44
-28.98
-28.23
-24.78
-18.80
-11.01
-2.42
6.12
14.04
21.15
27.42
32.65
36.33
37.77
36.40
32.16
25.74
18.51
12.09
7.88
6.50
7.62
10.16
12.71
14.06
13.57
11.36
8.12
4.94
2.82
2.38
3.59
5.63
7.02
5.89
0.63
-9.36
-23.12
-38.00
-50.32
-56.55
-54.64
-44.68
-28.89
-10.73
6.32
19.76
28.57
33.07
34.45
34.16
33.59
33.79
35.25
37.72
40.27
41.43
39.84
34.76
26.53
16.52
6.58
-1.63
-7.22
-10.18
-11.04
-10.41
-8.58
-5.60
-1.64
2.64
6.01
7.00
4.41
-2.11
-11.79
-22.90
-33.13
-40.17
-42.21
-38.26
-28.39
-13.71
3.91
22.20
39.05
52.80
62.55
68.02
69.36
66.96
61.40
53.51
44.33
35.07
26.79
20.16
15.26
11.61
8.48
5.24
1.67
-1.96
-5.16
-7.51
-9.01
-10.13
-11.67
-14.42
-18.83
-24.86
-32.14
-40.20
-48.74
-57.54
-66.17
-73.71
-78.67
-79.33
-74.41
-63.71
-48.36
-30.56
-12.83
2.66
14.70
23.05
28.11
30.50
30.76
29.28
26.39
22.56
18.41
14.65
11.89
10.47
10.35
11.18
12.34
13.17
13.10
11.79
9.13
5.30
0.61
-4.53
-9.72
-14.70
-19.32
-23.64
-27.88
-32.40
-37.57
-43.63
-50.40
-57.14
-62.51
-64.85
-62.64
-55.04
-42.21
-25.43
-6.66
11.88
28.28
41.23
50.14
54.97
56.18
54.47
50.69
45.74
40.41
35.34
30.89
27.18
24.06
21.24
18.41
15.37
12.04
8.51
4.90
1.31
-2.39
-6.47
-11.24
-16.89
-23.30
-30.05
-36.54
-42.15
-46.53
-49.65
-51.80
-53.48
-55.16
-57.08
-58.97
-60.06
-59.23
-55.29
-47.47
-35.67
-20.69
-4.00
12.59
27.44
39.37
47.89
52.99
55.05
54.58
52.13
48.23
43.49
38.52
33.91
30.12
27.38
25.62
24.59
23.86
23.08
22.02
20.64
19.00
17.18
15.17
12.80
9.88
6.29
2.12
-2.33
-6.60
-10.30
-13.25
-15.61
-17.79
-20.35
-23.76
-28.14
-33.06
-37.58
-40.44
-40.43
-36.82
-29.67
-19.81
-8.59
2.64
12.82
21.38
28.07
32.75
35.31
35.68
34.00
30.74
26.67
22.63
19.29
16.93
15.46
14.53
13.75
12.92
12.01
11.13
10.36
9.67
8.83
7.52
5.47
2.60
-0.97
-4.87
-8.71
-12.23
-15.35
-18.16
-20.86
-23.64
-26.66
-29.99
-33.59
-37.20
-40.26
-42.00
-41.63
-38.63
-33.04
-25.48
-17.01
-8.74
-1.48
4.35
8.70
11.64
13.15
13.13
11.51
8.47
4.58
0.68
-2.34
-3.93
-4.11
-3.52
-3.10
-3.67
-5.52
-8.28
-11.13
-13.30
-14.46
-14.92
-15.44
-16.77
-19.26
-22.67
-26.36
-29.45
-31.11
-30.60
-27.30
-20.93
-11.92
-1.81
6.68
10.28
6.31
-6.13
-25.36
-47.43
-67.31
-80.44
-84.10
-77.90
-63.33
-42.93
-19.24
5.60
30.06
53.01
73.64
91.51
106.66
119.59
131.09
141.69
151.31
158.99
163.18
162.40
155.89
144.10
128.64
111.69
95.30
80.76
68.40
57.74
47.91
37.97
27.15
14.95
1.14
-14.13
-30.31
-46.53
-61.88
-75.78
-88.10
-99.09
-109.03
-117.88
-125.15
-130.05
-131.76
-129.70
-123.60
-113.51
-99.57
-82.20
-62.10
-40.42
-18.63
1.74
19.41
33.70
44.52
52.24
57.43
60.72
62.72
64.02
65.19
66.67
68.54
70.34
71.03
69.36
64.42
56.21
45.98
35.83
27.96
23.84
23.62
26.23
29.64
31.44
29.26
21.23
6.45
-14.51
-39.39
-64.59
-86.16
-101.18
-108.75
-110.20
-108.13
-105.09
-102.41
-99.81
-95.93
-89.29
-79.09
-65.42
-49.17
-31.51
-13.66
3.39
18.80
31.74
41.43
47.13
48.42
45.39
38.80
30.03
20.74
12.42
5.98
1.49
-1.63
-4.23
-6.94
-9.97
-13.07
-15.88
-18.22
-20.28
-22.49
-25.27
-28.78
-32.84
-36.96
-40.70
-43.86
-46.55
-49.15
-52.14
-55.82
-60.37
-65.72
-71.64
-77.69
-83.11
-86.80
-87.48
-84.01
-75.83
-63.16
-47.16
-29.53
-12.12
3.53
16.44
26.19
32.76
36.34
37.26
36.03
33.34
30.05
27.06
25.05
24.34
24.84
26.21
27.93
29.55
30.70
31.14
30.67
29.15
26.43
22.52
17.50
11.58
5.08
-1.62
-8.14
-14.22
-19.76
-24.97
-30.26
-36.12
-42.88
-50.42
-58.10
-64.84
-69.31
-70.36
-67.31
-60.18
-49.74
-37.30
-24.48
-12.81
-3.56
2.59
5.45
5.26
2.56
-1.99
-7.61
-13.39
-18.31
-21.27
-21.27
-17.67
-10.42
-0.27
11.25
22.12
30.36
34.54
34.29
30.25
23.79
16.54
9.87
4.67
1.37
-0.11
-0.22
0.13
-0.25
-2.63
-7.73
-15.32
-24.04
-31.67
-35.89
-35.05
-28.62
-17.25
-2.42
14.09
30.57
45.65
58.30
67.85
73.99
76.76
76.56
74.01
69.83
64.73
59.35
54.35
50.47
48.51
49.10
52.42
57.96
64.53
70.54
74.43
75.12
72.25
66.19
57.86
48.34
38.59
29.18
20.19
11.25
1.82
-8.41
-19.10
-29.06
-36.49
-39.50
-36.86
-28.53
-15.70
-0.46
14.81
28.00
37.54
42.55
42.73
38.32
30.11
19.36
7.68
-3.26
-12.05
-17.77
-20.08
-19.15
-15.50
-9.93
-3.33
3.36
9.25
13.71
16.49
17.75
18.01
17.84
17.62
17.33
16.60
15.00
12.34
8.87
5.31
2.66
1.92
4.00
9.54
18.93
32.12
48.40
66.39
84.16
99.81
112.02
120.38
125.24
127.15
126.24
121.96
113.38
99.87
81.76
60.49
38.30
17.43
-0.49
-14.80
-25.63
-33.53
-39.18
-43.20
-46.18
-48.72
-51.36
-54.47
-58.11
-62.02
-65.72
-68.71
-70.71
-71.72
-72.11
-72.40
-73.03
-74.11
-75.27
-75.62
-74.01
-69.45
-61.52
-50.64
-38.00
-25.24
-13.85
-4.85
1.46
5.29
7.14
7.43
6.48
4.46
1.64
-1.59
-4.64
-6.82
-7.51
-6.39
-3.45
0.89
5.97
11.04
15.48
18.98
21.50
23.23
24.41
25.23
25.80
26.23
26.56
26.83
26.97
26.78
25.93
24.14
21.41
18.08
14.94
12.94
12.95
15.34
19.86
25.63
31.43
35.96
38.18
37.51
33.79
27.27
18.45
7.96
-3.42
-14.86
-25.53
-34.65
-41.61
-45.98
-47.61
-46.60
-43.31
-38.34
-32.37
-26.14
-20.25
-15.08
-10.80
-7.36
-4.61
-2.40
-0.61
0.73
1.57
1.77
1.19
-0.20
-2.29
-4.72
-6.85
-7.83
-6.91
-3.63
1.89
8.95
16.46
23.34
28.80
32.54
34.63
35.34
34.91
33.46
31.13
28.12
24.79
21.59
18.97
17.25
16.58
16.97
18.29
20.27
22.48
24.41
25.54
25.54
24.28
21.95
18.91
15.59
12.44
9.78
7.79
6.45
5.51
4.55
3.09
0.74
-2.54
-6.41
-10.17
-12.99
-14.18
-13.39
-10.69
-6.55
-1.69
3.16
7.31
10.21
11.50
10.97
8.64
4.71
-0.40
-6.16
-12.00
-17.49
-22.39
-26.65
-30.30
-33.28
-35.38
-36.31
-35.85
-34.05
-31.29
-28.18
-25.27
-22.87
-20.98
-19.38
-17.86
-16.38
-15.06
-14.09
-13.56
-13.40
-13.39
-13.22
-12.52
-10.87
-7.85
-3.18
2.98
9.99
16.72
21.96
24.81
25.07
23.30
20.60
18.15
16.79
16.87
18.20
20.31
22.73
25.11
27.28
29.24
31.07
32.88
34.74
36.71
38.71
40.52
41.77
41.95
40.64
37.67
33.29
28.13
23.02
18.76
15.81
14.19
13.50
13.16
12.65
11.71
10.39
8.91
7.37
5.61
3.02
-1.30
-8.24
-18.32
-31.37
-46.45
-62.03
-76.32
-87.78
-95.40
-98.92
-98.68
-95.43
-90.03
-83.24
-75.66
-67.84
-60.27
-53.43
-47.66
-43.02
-39.22
-35.63
-31.55
-26.42
-20.15
-13.06
-5.85
0.75
6.23
10.48
13.68
16.25
18.65
21.38
24.99
30.12
37.42
47.32
59.79
74.20
89.42
104.13
117.22
128.03
136.48
142.93
148.03
152.43
156.74
161.35
166.46
171.86
176.92
180.53
181.25
177.58
168.33
153.01
131.98
106.47
78.23
49.20
21.15
-4.51
-26.82
-45.28
-59.94
-71.45
-80.89
-89.49
-98.15
-107.16
-116.16
-124.41
-131.20
-136.15
-139.20
-140.43
-139.79
-137.09
-132.19
-125.23
-116.75
-107.59
-98.59
-90.35
-83.18
-77.18
-72.33
-68.58
-65.80
-63.74
-62.03
-60.24
-58.08
-55.39
-52.23
-48.78
-45.24
-41.76
-38.52
-35.64
-33.22
-31.31
-29.88
-28.84
-28.09
-27.51
-27.07
-26.73
-26.40
-26.00
-25.52
-25.05
-24.82
-25.18
-26.40
-28.45
-30.92
-32.96
-33.49
-31.52
-26.43
-18.28
-7.72
4.12
16.00
26.86
36.08
43.47
49.17
53.52
56.81
59.22
60.78
61.48
61.31
60.44
59.25
58.21
57.76
58.18
59.48
61.45
63.73
65.81
67.15
67.20
65.52
61.96
56.68
50.10
42.75
35.02
27.10
19.06
11.00
3.17
-4.08
-10.40
-15.60
-19.78
-23.16
-26.06
-28.70
-31.05
-32.72
-32.88
-30.43
-24.36
-14.25
-0.61
15.02
30.47
43.66
53.10
58.28
59.49
57.61
53.62
48.46
42.87
37.48
32.76
29.02
26.30
24.36
22.69
20.65
17.73
13.73
8.91
3.94
-0.34
-3.26
-4.51
-4.25
-2.91
-0.99
1.06
2.89
4.16
4.46
3.43
0.84
-3.32
-8.83
-15.47
-23.01
-31.30
-40.13
-49.09
-57.55
-64.83
-70.27
-73.49
-74.40
-73.22
-70.38
-66.41
-61.89
-57.34
-53.19
-49.72
-47.11
-45.45
-44.78
-45.09
-46.20
-47.79
-49.34
-50.37
-50.55
-49.83
-48.33
-46.30
-43.91
-41.30
-38.63
-36.17
-34.24
-33.16
-33.01
-33.58
-34.38
-34.84
-34.54
-33.40
-31.73
-30.11
-29.17
-29.42
-31.08
-34.04
-37.94
-42.25
-46.34
-49.56
-51.33
-51.28
-49.35
-45.92
-41.75
-37.66
-34.30
-31.94
-30.50
-29.87
-30.14
-31.73
-35.18
-40.66
-47.70
-55.17
-61.67
-66.06
-67.94
-67.52
-65.25
-61.60
-56.89
-51.27
-44.84
-37.79
-30.34
-22.66
-14.71
-6.26
2.72
11.85
20.36
27.45
32.54
35.61
36.96
37.26
37.51
38.34
39.94
42.30
45.39
49.18
53.58
58.01
62.04
66.20
70.71
75.30
79.59
82.76
83.50
80.29
71.25
56.34
39.31
24.26
14.07
10.03
11.08
14.17
15.62
11.37
0.23
-13.72
-26.68
-37.01
-44.25
-49.13
-52.78
-56.27
-61.68
-69.18
-74.48
-75.35
-72.61
-67.62
-61.67
-55.35
-36.67
-1.03
31.67
55.58
75.51
92.41
106.24
116.14
120.58
116.50
99.82
70.44
36.34
6.42
-12.80
-17.80
-9.71
5.90
19.69
21.95
8.38
-16.68
-47.01
-78.00
-106.78
-132.53
-145.24
-138.44
-113.93
-80.17
-44.45
-11.45
16.45
38.43
54.44
65.03
69.85
68.98
63.92
57.64
51.45
44.86
37.71
31.84
31.37
39.65
57.52
82.17
108.60
130.51
142.45
142.30
131.25
112.22
86.93
56.17
20.71
-14.43
-43.25
-60.33
-63.19
-53.75
-37.53
-21.40
-10.05
-4.55
-2.67
-1.75
-0.45
0.77
0.36
-2.80
-8.58
-15.34
-20.67
-22.43
-19.92
-13.76
-5.50
3.03
10.53
16.45
21.10
24.92
28.39
31.55
34.06
35.34
34.64
31.61
25.58
17.77
9.58
2.27
-3.62
-8.10
-11.53
-14.24
-15.69
-15.36
-12.78
-8.72
-5.12
-4.77
-10.22
-22.86
-41.90
-63.91
-84.14
-96.45
-98.44
-92.25
-83.33
-76.94
-75.79
-79.60
-83.96
-84.55
-78.74
-66.68
-50.51
-32.83
-14.81
3.31
21.60
39.91
57.26
72.42
84.39
93.08
95.67
92.92
87.33
82.14
80.26
83.18
90.76
101.59
113.18
123.11
130.67
136.05
139.60
141.28
140.37
136.06
128.07
116.08
99.88
80.07
57.31
32.08
4.88
-23.51
-53.16
-79.41
-96.94
-103.77
-101.70
-94.29
-84.65
-74.81
-65.77
-58.10
-51.48
-46.03
-41.98
-38.98
-36.38
-33.66
-30.76
-28.01
-26.06
-24.79
-24.24
-24.53
-25.49
-26.82
-28.50
-30.75
-34.20
-40.35
-49.77
-63.19
-80.54
-99.98
-117.60
-128.49
-128.57
-114.93
-91.93
-66.28
-44.93
-32.48
-29.76
-33.90
-40.95
-47.47
-51.45
-52.46
-50.32
-44.96
-36.89
-27.64
-19.74
-16.22
-19.31
-29.52
-45.50
-64.07
-81.48
-95.12
-104.09
-108.90
-110.65
-109.93
-106.14
-97.61
-84.52
-66.67
-44.91
-21.05
2.92
25.77
47.50
69.29
92.58
118.34
146.85
177.29
208.31
238.66
267.50
294.42
318.95
340.16
356.62
366.97
369.95
364.72
350.85
328.23
297.07
258.04
212.58
162.95
112.28
63.80
20.12
-17.54
-49.65
-78.10
-105.14
-132.21
-159.01
-183.34
-202.16
-212.91
-214.61
-208.28
-196.35
-181.64
-166.41
-151.96
-138.77
-126.94
-116.41
-107.05
-98.63
-90.89
-83.74
-77.39
-72.27
-68.83
-67.40
-68.09
-70.71
-74.74
-79.19
-82.55
-83.02
-79.12
-70.35
-57.65
-43.11
-29.34
-18.45
-11.53
-8.51
-8.69
-11.26
-15.58
-21.26
-27.89
-35.03
-42.35
-49.90
-58.22
-67.98
-79.45
-92.10
-104.65
-115.74
-124.67
-131.64
-137.41
-142.67
-147.35
-150.71
-151.84
-150.29
-145.96
-138.73
-127.47
-109.49
-81.14
-39.44
15.76
80.61
148.07
210.51
262.58
303.12
334.97
362.95
391.11
420.50
448.67
470.71
481.67
477.76
457.08
419.57
366.60
300.29
222.92
136.93
45.53
-45.42
-128.45
-196.03
-242.54
-265.66
-266.80
-250.54
-222.97
-189.84
-153.44
-115.49
-79.21
-49.67
-31.45
-25.74
-28.99
-33.81
-31.93
-14.50
20.98
68.52
115.95
151.32
168.56
168.96
159.08
146.88
142.64
152.05
174.54
205.11
239.02
274.47
311.48
349.58
358.77
319.59
234.91
129.58
30.76
-46.61
-100.02
-134.18
-155.99
-171.62
-180.61
-181.15
-173.40
-160.97
-148.48
-138.73
-133.39
-132.54
-135.53
-137.88
-135.86
-128.59
-118.54
-108.98
-101.92
-97.95
-96.80
-98.24
-100.30
-102.12
-103.71
-107.00
-113.75
-124.04
-136.52
-149.01
-159.53
-165.70
-166.23
-161.39
-152.81
-142.17
-130.31
-117.13
-102.07
-84.63
-64.46
-42.06
-18.90
2.86
21.36
35.73
46.33
54.24
60.64
66.19
70.73
73.38
73.06
69.37
63.20
56.72
52.48
52.41
57.06
65.20
74.12
80.49
81.81
77.17
67.55
54.65
40.71
28.22
19.37
15.21
15.03
16.69
17.65
16.38
12.12
6.37
3.47
9.52
29.61
64.75
110.85
159.34
199.75
221.05
217.03
189.87
149.84
110.45
81.73
66.65
61.14
57.25
44.81
17.08
-26.37
-81.02
-141.81
-207.09
-277.62
-353.54
-414.31
-437.48
-413.89
-354.64
-280.25
-208.18
-149.24
-107.29
-80.63
-64.17
-54.85
-51.44
-52.95
-58.70
-65.13
-70.10
-72.84
-73.51
-72.50
-71.68
-72.08
-72.17
-67.77
-54.44
-30.57
2.57
41.46
80.60
113.85
136.97
149.24
153.28
153.25
152.46
152.84
154.83
157.83
159.87
158.48
151.84
139.72
123.83
107.10
92.93
83.99
81.13
83.16
87.56
91.81
94.14
93.43
88.40
77.37
58.75
32.34
0.66
-31.05
-56.16
-69.18
-68.06
-55.06
-35.59
-15.88
-0.65
7.80
8.97
2.86
-10.65
-31.25
-56.99
-83.50
-104.87
-115.73
-113.68
-100.54
-81.55
-62.90
-49.08
-41.31
-37.89
-35.80
-32.55
-27.14
-19.99
-12.05
-4.09
3.63
11.25
18.73
25.72
31.47
35.20
36.42
35.27
32.49
29.16
26.25
24.28
23.02
21.77
19.60
15.87
10.44
3.76
-3.49
-10.70
-17.65
-24.53
-31.81
-39.97
-49.32
-59.83
-71.14
-82.57
-93.08
-101.28
-105.64
-104.72
-97.64
-84.34
-65.69
-43.25
-18.86
5.81
29.60
51.90
72.57
91.62
109.08
124.84
138.69
150.49
160.23
168.03
174.03
178.22
180.31
179.78
176.08
168.77
157.77
143.26
125.68
105.61
83.67
60.47
36.62
12.69
-10.71
-32.83
-52.81
-69.71
-82.84
-92.05
-97.98
-101.85
-105.11
-108.80
-113.16
-117.59
-121.02
-122.39
-121.08
-117.08
-110.94
-103.48
-95.58
-87.95
-81.09
-75.25
-70.50
-66.76
-63.76
-61.06
-58.07
-54.18
-48.84
-41.86
-33.47
-24.37
-15.58
-8.19
-3.10
-0.79
-1.24
-3.90
-7.79
-11.75
-14.69
-15.84
-14.88
-11.85
-7.14
-1.32
5.04
11.42
17.51
23.29
28.95
34.78
40.82
46.82
52.23
56.39
58.89
59.64
58.85
56.78
53.71
49.90
45.83
42.16
39.50
37.97
36.92
34.98
30.70
23.25
12.99
1.50
-9.08
-16.74
-20.44
-20.32
-17.57
-13.92
-11.01
-9.99
-11.34
-15.08
-20.98
-28.86
-38.38
-48.83
-58.80
-66.17
-68.57
-64.03
-51.87
-33.09
-10.19
13.58
35.04
51.75
62.30
66.32
64.41
58.18
49.99
42.67
38.87
40.09
46.16
55.43
65.37
73.64
78.76
80.05
77.57
72.22
65.37
58.77
54.45
54.08
58.32
66.54
76.26
84.16
87.89
86.46
80.48
71.83
62.86
55.75
52.41
53.29
57.81
65.60
75.90
87.47
98.76
108.07
113.73
114.78
109.72
97.24
77.65
52.17
22.60
-8.76
-39.62
-70.90
-98.09
-115.91
-126.01
-129.55
-127.21
-119.70
-107.93
-92.96
-75.76
-56.69
-36.89
-18.05
-1.28
12.17
21.44
26.94
30.68
35.60
44.59
57.83
72.45
84.14
88.06
80.71
61.04
30.47
-8.08
-50.86
-94.46
-135.48
-169.78
-193.45
-203.90
-200.90
-186.96
-166.55
-144.39
-124.27
-108.13
-96.02
-87.03
-80.22
-74.93
-70.70
-67.05
-63.38
-59.27
-54.66
-49.75
-44.96
-40.72
-37.26
-34.49
-32.18
-29.99
-27.70
-25.12
-22.17
-18.87
-15.40
-12.07
-9.31
-7.42
-6.47
-6.15
-5.89
-5.18
-3.73
-1.69
0.58
2.75
4.70
6.62
8.87
11.65
14.92
18.35
21.56
24.24
26.27
27.66
28.47
28.76
28.56
27.99
27.15
26.16
24.96
23.40
21.29
18.59
15.49
12.29
9.16
6.01
2.54
-1.51
-5.94
-9.90
-12.07
-11.14
-6.44
1.73
12.12
23.07
33.04
41.02
46.61
49.82
50.78
49.67
46.70
42.28
37.10
32.10
28.23
26.29
26.73
29.55
34.28
40.03
45.55
49.41
50.32
47.41
40.49
30.05
17.07
2.75
-11.73
-25.35
-37.29
-46.96
-54.12
-58.97
-62.12
-64.39
-66.51
-68.81
-70.98
-72.24
-71.52
-67.90
-60.85
-50.46
-37.60
-23.87
-11.44
-2.75
0.06
-4.36
-16.16
-34.28
-56.73
-81.09
-105.08
-126.83
-145.06
-158.96
-168.14
-172.62
-172.85
-169.72
-164.46
-158.37
-152.45
-147.14
-142.14
-136.42
-128.50
-116.74
-99.74
-76.78
-48.05
-14.86
20.44
54.94
85.76
110.74
128.81
140.09
145.56
146.57
144.41
140.11
134.44
128.15
122.00
116.75
112.94
110.73
109.82
109.60
109.34
108.48
106.80
104.31
101.23
97.73
93.86
89.58
84.85
79.75
74.54
69.59
65.21
61.54
58.44
55.58
52.61
49.25
45.47
41.36
37.10
32.82
28.62
24.59
20.83
17.54
14.88
12.94
11.72
11.08
10.76
10.53
10.11
9.37
8.35
7.27
6.46
6.29
6.99
8.48
10.40
12.06
12.57
11.06
6.88
-0.26
-10.22
-22.47
-36.28
-50.86
-65.50
-79.61
-92.60
-103.83
-112.50
-117.78
-119.07
-116.20
-109.53
-99.83
-88.03
-74.95
-61.19
-47.20
-33.32
-19.97
-7.56
3.51
12.95
20.57
26.32
30.15
32.12
32.41
31.40
29.58
27.48
25.46
23.70
22.27
21.26
20.91
21.55
23.49
26.86
31.44
36.69
41.85
46.21
49.27
50.94
51.52
51.57
51.62
52.02
52.78
53.62
54.23
54.48
54.56
54.89
55.84
57.46
59.28
60.56
60.60
59.20
56.89
54.67
53.58
54.07
55.79
57.67
58.58
57.80
55.23
51.11
45.55
38.17
28.28
15.35
-0.55
-18.60
-37.71
-57.19
-77.08
-97.88
-119.59
-140.83
-158.39
-167.99
-165.82
-150.24
-122.73
-87.61
-50.60
-16.92
9.86
28.02
36.89
36.06
25.16
4.68
-22.95
-52.89
-78.75
-94.53
-96.65
-85.24
-63.72
-37.29
-11.02
11.55
28.67
40.24
47.05
50.45
51.96
52.95
54.27
55.95
57.34
57.43
55.45
51.29
45.55
39.19
33.20
28.32
25.10
23.97
25.18
28.69
33.94
39.96
45.56
49.81
52.21
52.65
51.26
48.09
43.16
36.47
28.27
18.97
9.11
-0.90
-10.80
-20.44
-29.63
-38.02
-45.09
-50.32
-53.35
-54.04
-52.54
-49.28
-44.76
-39.58
-34.23
-29.10
-24.48
-20.59
-17.67
-15.87
-15.28
-15.80
-17.19
-19.20
-21.67
-24.52
-27.76
-31.26
-34.66
-37.52
-39.40
-40.14
-39.85
-38.88
-37.58
-36.10
-34.41
-32.32
-29.69
-26.49
-22.76
-18.59
-14.07
-9.36
-4.78
-0.81
2.07
3.57
3.83
3.41
3.04
3.41
4.86
7.37
10.62
14.06
16.99
18.65
18.36
15.72
10.93
4.82
-1.37
-6.40
-9.45
-10.45
-9.87
-8.47
-6.90
-5.51
-4.42
-3.58
-2.95
-2.50
-2.18
-1.81
-1.22
-0.28
0.87
1.77
1.71
0.05
-3.49
-8.54
-14.13
-18.92
-21.69
-21.67
-18.81
-13.63
-7.03
0.05
6.84
12.80
17.58
21.01
23.01
23.71
23.37
22.41
21.23
20.16
19.36
18.81
18.47
18.26
18.19
18.32
18.66
19.17
19.84
20.71
21.93
23.75
26.36
29.77
33.71
37.65
40.89
42.77
42.81
40.78
36.76
31.13
24.46
17.38
10.49
4.22
-1.25
-5.87
-9.63
-12.44
-14.20
-14.75
-14.12
-12.49
-10.26
-7.86
-5.67
-3.89
-2.62
-1.92
-1.91
-2.78
-4.64
-7.35
-10.45
-13.18
-14.77
-14.69
-12.86
-9.62
-5.55
-1.26
2.82
6.42
9.37
11.52
12.74
13.00
12.42
11.21
9.58
7.66
5.41
2.71
-0.50
-4.13
-7.88
-11.40
-14.42
-16.91
-19.07
-21.23
-23.56
-25.97
-28.01
-29.07
-28.67
-26.65
-23.27
-19.06
-14.57
-10.22
-6.17
-2.48
0.80
3.51
5.39
6.25
6.05
4.99
3.52
2.12
1.18
0.90
1.19
1.80
2.41
2.80
2.88
2.73
2.47
2.16
1.76
1.18
0.33
-0.77
-1.99
-3.18
-4.22
-5.07
-5.84
-6.67
-7.73
-9.14
-10.85
-12.69
-14.30
-15.23
-14.97
-13.14
-9.53
-4.26
2.20
9.13
15.74
21.35
25.56
28.28
29.65
29.96
29.52
28.64
27.69
27.09
27.23
28.37
30.50
33.34
36.45
39.36
41.78
43.64
45.05
46.21
47.26
48.21
48.95
49.31
49.19
48.69
48.12
47.85
48.02
48.33
47.84
45.11
38.56
27.18
11.06
-8.23
-27.67
-43.34
-51.41
-49.16
-35.79
-12.69
16.80
48.14
76.49
97.70
109.11
110.04
101.90
87.69
71.11
55.49
42.93
34.05
28.29
24.63
22.13
20.31
18.90
17.64
16.04
13.46
9.40
3.74
-3.22
-10.84
-18.43
-25.54
-32.07
-38.27
-44.49
-51.01
-57.73
-64.14
-69.56
-73.32
-75.16
-75.24
-74.09
-72.40
-70.76
-69.57
-69.07
-69.43
-70.82
-73.45
-77.44
-82.73
-88.94
-95.43
-101.39
-106.07
-108.99
-110.01
-109.27
-106.91
-102.96
-97.22
-89.33
-78.99
-66.06
-50.57
-32.80
-13.21
7.50
28.51
48.88
67.72
84.38
98.43
109.68
118.04
123.45
125.94
125.73
123.41
119.86
116.03
112.53
109.26
105.44
99.83
91.26
79.11
63.66
45.94
27.41
9.47
-6.88
-21.16
-33.26
-43.31
-51.70
-59.03
-66.12
-73.74
-82.20
-91.09
-99.30
-105.53
-108.85
-109.19
-107.35
-104.71
-102.59
-101.86
-102.75
-105.08
-108.54
-112.84
-117.83
-123.36
-129.35
-135.72
-142.46
-149.50
-156.57
-163.05
-167.95
-170.14
-168.87
-164.28
-157.66
-151.26
-147.44
-147.62
-151.39
-156.39
-159.03
-155.80
-144.65
-125.62
-100.61
-72.34
-43.13
-14.27
13.94
41.31
66.96
89.00
105.01
113.22
113.63
108.60
102.33
99.61
104.06
116.79
136.18
158.71
180.52
198.72
211.99
220.18
223.47
221.56
213.65
199.05
178.19
153.22
127.72
105.73
90.21
82.03
79.70
80.17
80.02
76.56
68.45
55.70
39.48
21.45
3.35
-13.37
-27.84
-40.01
-50.56
-60.53
-70.66
-80.83
-90.17
-97.57
-102.29
-104.33
-104.29
-102.80
-100.03
-95.64
-88.93
-79.90
-69.58
-59.75
-52.09
-47.48
-45.74
-45.89
-46.77
-46.94
-45.94
-44.11
-42.05
-39.73
-36.49
-31.24
-23.07
-11.51
4.45
24.49
46.94
69.74
91.61
112.24
131.98
151.21
169.96
189.73
210.57
231.04
249.47
265.29
278.89
290.59
299.86
305.13
306.90
304.33
295.34
277.88
251.66
217.99
179.04
137.19
79.49
6.98
-67.89
-130.76
-175.44
-203.32
-219.01
-226.36
-226.10
-218.21
-201.09
-176.32
-147.57
-121.06
-101.65
-91.51
-90.14
-95.28
-104.09
-111.92
-115.98
-115.89
-113.09
-108.94
-104.37
-99.90
-95.76
-92.33
-88.72
-84.55
-79.81
-74.21
-65.98
-52.26
-30.35
0.98
39.80
81.84
120.94
151.01
167.87
170.57
160.83
142.12
118.66
93.66
69.72
48.86
32.75
22.19
16.85
14.95
14.46
14.33
13.66
12.13
9.56
5.68
-0.82
-11.87
-29.57
-54.40
-81.20
-102.56
-112.36
-109.72
-97.93
-81.79
-64.91
-49.94
-40.38
-34.46
-31.32
-31.11
-34.51
-41.66
-53.16
-64.60
-73.81
-79.38
-80.00
-75.48
-66.04
-55.23
-42.51
-28.20
-13.84
-2.82
1.40
-3.32
-17.43
-39.66
-66.14
-90.75
-108.07
-114.59
-109.91
-95.55
-73.71
-46.99
-17.81
11.70
39.74
64.02
82.50
93.63
97.32
94.99
88.80
80.92
72.97
65.87
59.26
52.15
43.39
32.46
19.78
6.59
-5.49
-14.96
-20.81
-22.94
-21.88
-18.52
-13.74
-8.29
-2.83
2.02
5.71
7.95
8.73
8.44
7.70
7.26
7.69
9.28
11.97
15.44
19.18
22.69
25.58
27.71
29.20
30.30
31.30
32.32
33.28
33.99
34.29
34.17
33.77
33.26
32.81
32.49
32.26
32.06
31.82
31.55
31.25
30.86
30.23
29.23
27.75
25.75
23.20
20.15
16.73
13.13
9.60
6.48
4.21
3.14
3.47
5.04
7.47
10.28
13.02
15.31
16.83
17.65
18.00
18.01
17.59
16.57
14.99
13.02
10.72
7.83
4.19
-0.58
-7.29
-16.90
-29.74
-44.88
-60.33
-73.77
-83.61
-88.58
-88.65
-85.44
-81.94
-81.11
-84.38
-91.21
-99.32
-105.66
-105.89
-95.96
-73.68
-39.64
3.33
51.25
99.70
144.77
176.04
184.84
170.85
143.71
115.77
94.26
79.56
67.89
55.29
39.81
23.12
8.64
-1.33
-7.32
-11.84
-16.40
-23.05
-31.92
-42.09
-51.61
-58.87
-63.73
-67.71
-72.44
-78.29
-84.41
-89.27
-91.83
-91.53
-88.11
-81.83
-73.65
-64.04
-52.50
-38.30
-21.27
-2.63
15.42
31.11
42.54
48.25
47.92
42.39
32.92
20.48
5.78
-10.44
-25.75
-37.86
-44.99
-45.71
-38.83
-23.78
-1.00
28.54
62.99
101.14
139.61
172.99
195.60
203.67
196.70
177.46
151.59
115.27
72.43
30.87
-3.19
-28.28
-46.04
-56.95
-63.64
-67.78
-70.97
-73.13
-74.60
-75.93
-76.52
-74.75
-69.00
-59.24
-46.66
-33.55
-21.06
-10.23
-1.56
5.47
12.21
19.94
28.81
38.23
46.87
54.25
59.92
63.58
65.35
65.53
64.38
61.67
57.17
50.76
42.97
34.48
25.90
17.78
10.60
4.66
0.01
-3.47
-6.06
-8.05
-9.82
-11.78
-14.19
-17.02
-20.02
-22.78
-24.92
-26.31
-27.19
-28.15
-29.88
-32.89
-37.30
-42.72
-48.47
-53.94
-58.84
-63.35
-67.84
-72.55
-77.22
-81.09
-83.19
-82.81
-79.85
-74.89
-68.92
-62.87
-57.30
-52.27
-47.49
-42.63
-37.51
-32.14
-26.71
-21.41
-16.31
-11.24
-5.80
0.47
7.89
16.37
25.32
33.73
40.45
44.63
45.94
44.62
41.35
36.91
31.96
26.88
21.76
16.51
10.92
4.88
-1.62
-8.38
-15.01
-21.11
-26.28
-30.26
-32.90
-34.18
-34.11
-32.77
-30.28
-26.87
-22.82
-18.53
-14.41
-10.87
-8.17
-6.44
-5.72
-6.04
-7.43
-9.86
-13.11
-16.70
-19.84
-21.62
-21.18
-17.94
-11.65
-2.31
9.84
24.24
39.92
55.51
69.59
81.03
89.28
94.49
97.39
98.83
99.45
99.47
98.93
97.98
96.89
95.76
94.34
92.01
88.07
81.95
73.43
63.01
51.78
40.98
31.57
23.78
17.40
11.95
6.65
0.51
-7.27
-16.92
-28.25
-40.75
-53.97
-67.44
-79.41
-87.06
-88.95
-86.51
-82.68
-79.77
-78.36
-77.83
-76.78
-73.91
-68.87
-62.54
-56.31
-51.11
-47.70
-44.89
-41.69
-37.49
-32.38
-27.23
-23.32
-21.42
-21.24
-21.45
-20.28
-16.47
-9.49
0.35
11.81
22.99
32.09
38.01
40.48
40.02
37.32
33.27
28.75
24.61
21.59
20.35
21.38
24.68
29.77
35.52
40.67
44.14
45.34
44.25
41.41
37.62
33.64
29.95
26.56
23.15
19.29
14.56
8.75
1.92
-5.63
-13.57
-21.66
-29.84
-38.17
-46.62
-54.85
-62.01
-66.96
-68.64
-66.52
-60.82
-52.51
-42.98
-33.53
-25.19
-18.45
-13.50
-10.35
-9.00
-9.33
-11.06
-13.64
-16.26
-17.98
-17.85
-15.11
-9.47
-1.12
9.38
21.21
33.52
45.47
56.20
65.04
71.45
75.00
75.52
73.22
68.65
62.37
54.64
45.24
34.17
21.61
7.95
-6.29
-20.36
-33.31
-44.16
-52.22
-57.27
-59.00
-57.55
-53.77
-49.12
-45.02
-42.08
-39.87
-37.38
-33.59
-26.88
-15.97
-0.36
19.44
42.36
67.11
92.47
117.01
133.60
135.99
122.48
97.65
68.93
42.13
19.78
2.19
-11.29
-21.35
-27.61
-29.49
-27.05
-21.42
-14.39
-7.87
-3.11
-0.68
-0.42
-0.96
-0.76
0.98
3.68
6.24
6.84
4.75
0.65
-3.74
-6.26
-5.76
-2.60
1.66
5.48
7.81
8.90
9.72
11.10
13.33
15.80
17.65
18.33
18.00
16.66
14.04
9.38
1.60
-9.85
-24.93
-42.65
-61.26
-75.72
-82.21
-80.31
-73.09
-64.42
-56.58
-49.96
-43.87
-37.60
-30.87
-24.27
-18.39
-13.13
-7.65
-1.11
6.66
15.02
22.91
29.01
32.80
34.16
33.64
32.17
30.53
28.91
27.06
24.64
21.56
17.63
12.91
7.75
2.72
-1.74
-5.62
-9.38
-14.05
-19.35
-25.68
-33.17
-41.14
-48.13
-52.40
-52.70
-48.71
-41.15
-31.32
-20.89
-11.12
-2.64
4.54
10.79
16.56
22.16
27.69
33.14
38.31
43.24
48.19
53.48
59.17
64.79
69.38
71.87
71.59
68.47
63.22
56.89
50.38
44.10
38.03
32.07
26.39
21.52
18.13
16.67
17.08
18.65
20.20
20.38
18.00
12.20
2.75
-9.94
-24.74
-39.94
-53.64
-64.21
-70.73
-73.22
-72.59
-70.23
-67.50
-65.35
-64.03
-63.24
-62.31
-60.54
-57.41
-52.67
-46.35
-38.65
-29.92
-20.69
-11.74
-4.05
1.42
3.98
3.58
0.85
-3.07
-6.90
-9.67
-10.93
-10.69
-9.30
-7.07
-4.24
-0.87
2.91
6.90
10.71
13.87
15.99
16.94
16.82
15.91
14.52
12.85
10.98
8.90
6.49
3.57
-0.06
-4.58
-9.92
-15.60
-20.72
-24.13
-24.90
-22.75
-18.27
-12.73
-7.64
-4.19
-2.88
-3.45
-5.18
-7.16
-8.57
-8.86
-7.67
-4.94
-0.79
4.38
10.00
15.38
19.97
23.42
25.66
26.86
27.24
26.91
25.92
24.26
22.05
19.55
17.16
15.23
13.84
12.57
10.52
6.44
-0.93
-12.40
-27.95
-46.52
-66.09
-83.91
-97.12
-103.29
-101.22
-91.41
-76.25
-59.53
-45.46
-37.26
-36.16
-41.10
-49.21
-57.05
-61.68
-61.41
-55.76
-45.19
-30.75
-14.07
2.72
17.11
26.85
30.69
28.94
23.37
16.54
10.85
7.82
7.77
9.97
13.10
15.61
15.98
12.85
5.19
-7.53
-25.19
-47.02
-71.64
-96.95
-119.94
-136.63
-142.55
-133.94
-109.29
-70.46
-22.62
27.26
72.67
109.39
136.26
154.37
165.55
171.02
171.02
165.43
154.73
140.53
125.20
111.02
99.20
89.48
80.45
70.39
58.18
43.80
28.28
13.20
-0.09
-10.88
-19.33
-26.08
-31.80
-36.76
-40.71
-43.04
-43.21
-41.04
-36.84
-31.32
-25.36
-19.81
-15.37
-12.46
-11.19
-11.32
-12.23
-12.99
-12.66
-10.51
-6.34
-0.60
5.84
12.02
17.28
21.48
25.12
29.14
34.70
42.83
54.09
68.38
84.85
102.08
118.33
132.01
141.98
147.66
149.00
146.19
139.48
129.09
115.39
98.98
80.79
61.83
42.85
24.03
5.06
-14.59
-35.18
-56.24
-76.56
-94.45
-108.33
-117.09
-120.31
-118.15
-111.20
-100.35
-86.79
-71.94
-57.27
-43.99
-32.77
-23.56
-15.81
-8.80
-2.12
4.04
8.86
11.30
10.59
6.71
0.48
-6.67
-13.32
-18.55
-22.22
-24.76
-26.77
-28.71
-30.76
-32.91
-35.16
-37.54
-40.11
-42.84
-45.56
-48.00
-49.93
-51.10
-51.23
-49.95
-46.91
-41.92
-35.17
-27.23
-18.86
-10.67
-2.94
4.51
11.91
19.31
26.36
32.33
36.50
38.41
38.09
35.98
32.71
28.87
25.07
21.94
20.25
20.75
23.86
29.24
35.80
41.92
46.05
47.27
45.50
41.40
35.89
29.76
23.47
17.17
10.84
4.49
-1.87
-8.20
-14.48
-20.66
-26.62
-32.00
-36.19
-38.37
-37.75
-33.88
-26.89
-17.56
-7.21
2.68
10.88
16.67
19.99
21.27
21.22
20.53
19.73
19.04
18.44
17.76
16.77
15.28
13.19
10.47
7.20
3.53
-0.37
-4.27
-7.89
-11.03
-13.58
-15.59
-17.32
-19.13
-21.36
-24.24
-27.68
-31.35
-34.67
-37.08
-38.26
-38.24
-37.45
-36.48
-35.81
-35.53
-35.32
-34.46
-32.13
-27.63
-20.56
-10.97
0.65
13.41
26.15
37.59
46.73
53.09
56.74
58.30
58.56
58.18
57.46
56.38
54.75
52.43
49.48
46.10
42.55
39.03
35.56
32.10
28.61
25.10
21.61
18.16
14.57
10.51
5.50
-0.82
-8.62
-17.62
-27.09
-35.96
-43.09
-47.58
-48.99
-47.50
-43.73
-38.59
-32.97
-27.51
-22.55
-18.14
-14.27
-10.92
-8.17
-6.19
-5.06
-4.78
-5.17
-5.88
-6.45
-6.50
-5.70
-3.93
-1.24
2.16
5.89
9.37
11.91
12.80
11.45
7.70
1.83
-5.42
-12.98
-19.76
-24.94
-28.16
-29.58
-29.80
-29.56
-29.42
-29.54
-29.57
-28.81
-26.54
-22.30
-16.09
-8.29
0.45
9.43
18.00
25.67
32.11
37.22
41.02
43.66
45.23
45.69
44.86
42.51
38.57
33.15
26.63
19.43
11.93
4.37
-3.04
-10.08
-16.44
-21.83
-26.12
-29.34
-31.68
-33.31
-34.31
-34.69
-34.48
-33.91
-33.37
-33.31
-34.00
-35.31
-36.65
-37.08
-35.63
-31.64
-25.06
-16.42
-6.77
2.70
11.00
17.54
22.08
24.58
24.95
23.02
18.73
12.35
4.63
-3.31
-10.24
-15.24
-17.90
-18.33
-17.00
-14.45
-11.19
-7.62
-4.01
-0.63
2.30
4.52
5.81
5.97
4.97
3.02
0.62
-1.43
-2.28
-1.27
1.87
6.90
13.18
19.88
26.17
31.49
35.45
37.85
38.53
37.30
34.06
28.88
22.07
14.23
6.09
-1.66
-8.54
-14.35
-19.10
-22.86
-25.66
-27.38
-27.91
-27.16
-25.21
-22.33
-18.92
-15.34
-11.97
-9.04
-6.61
-4.60
-2.73
-0.63
2.02
5.33
9.10
12.78
15.64
17.05
16.66
14.57
11.17
7.01
2.64
-1.50
-5.07
-7.80
-9.49
-10.08
-9.73
-8.77
-7.64
-6.74
-6.32
-6.40
-6.78
-7.14
-7.25
-7.03
-6.68
-6.52
-6.81
-7.53
-8.36
-8.70
-7.99
-6.01
-3.08
0.01
2.19
2.52
0.44
-4.01
-10.13
-16.77
-22.56
-26.31
-27.28
-25.39
-21.09
-15.18
-8.51
-1.84
4.20
9.02
12.10
13.03
11.76
8.73
4.93
1.59
-0.12
0.41
3.20
7.68
13.06
18.63
23.98
28.89
33.23
36.70
38.89
39.38
37.90
34.46
29.27
22.57
14.53
5.24
-5.08
-15.88
-26.19
-34.79
-40.56
-42.87
-41.74
-37.79
-31.90
-24.88
-17.33
-9.64
-2.15
4.67
10.31
14.25
16.22
16.28
14.75
12.12
8.96
5.80
3.24
1.80
1.87
3.51
6.31
9.43
11.82
12.58
11.25
7.98
3.41
-1.58
-6.28
-10.34
-13.78
-16.92
-20.04
-23.24
-26.30
-28.71
-29.79
-28.89
-25.62
-19.98
-12.42
-3.72
5.20
13.48
20.44
25.66
28.91
30.15
29.45
27.12
23.69
19.95
16.78
14.85
14.31
14.71
14.99
13.95
10.68
5.02
-2.38
-10.23
-17.07
-21.79
-23.86
-23.40
-20.99
-17.38
-13.31
-9.39
-6.10
-3.74
-2.43
-2.09
-2.42
-3.00
-3.36
-3.04
-1.76
0.62
4.14
8.70
14.12
20.09
26.15
31.61
35.63
37.43
36.44
32.57
26.17
18.03
9.19
0.76
-6.23
-10.97
-12.94
-12.00
-8.43
-2.79
4.15
11.68
19.27
26.68
33.87
40.90
47.69
53.97
59.31
63.28
65.64
66.43
66.00
64.88
63.58
62.40
61.33
60.08
58.19
55.30
51.28
46.26
40.43
33.89
26.47
17.81
7.61
-4.02
-16.43
-28.59
-39.52
-48.61
-55.90
-61.83
-66.97
-71.55
-75.51
-78.55
-80.47
-81.34
-81.59
-81.82
-82.67
-84.58
-87.67
-91.70
-96.06
-99.95
-102.50
-103.07
-101.34
-97.39
-91.56
-84.22
-75.66
-66.04
-55.62
-44.91
-34.79
-26.33
-20.40
-17.26
-16.27
-15.98
-14.49
-10.16
-2.16
9.22
22.65
36.17
47.78
55.93
60.06
60.92
60.52
61.96
68.65
83.15
105.99
134.68
163.72
185.79
193.86
183.69
155.42
113.69
66.06
20.51
-17.04
-43.95
-60.57
-68.93
-71.25
-69.12
-63.48
-55.27
-45.84
-36.98
-30.33
-26.69
-25.79
-26.55
-27.86
-29.19
-30.65
-32.69
-35.61
-39.33
-43.31
-46.92
-49.67
-51.59
-52.81
-53.16
-51.97
-48.31
-41.54
-31.86
-20.41
-9.02
-0.14
4.12
2.76
-3.80
-13.80
-24.87
-34.61
-41.16
-43.39
-41.68
-37.27
-31.83
-27.03
-24.18
-24.34
-27.95
-34.40
-38.94
-37.14
-27.34
-12.23
2.78
13.05
16.31
13.12
6.44
0.10
-3.29
-2.63
1.77
8.86
18.07
29.48
43.12
57.74
71.70
83.14
90.82
94.45
94.30
91.42
86.58
80.01
71.83
62.23
51.62
40.73
32.12
25.78
22.02
20.88
21.73
24.05
27.45
31.81
36.86
42.33
47.68
53.04
58.89
63.50
66.43
67.74
67.74
66.26
63.12
58.02
51.61
44.88
38.59
33.35
29.07
25.16
20.01
12.10
0.12
-15.95
-35.42
-57.62
-81.88
-107.78
-129.95
-142.75
-143.11
-133.11
-116.96
-98.41
-79.92
-62.78
-47.70
-34.73
-25.79
-19.85
-16.32
-14.37
-13.43
-13.15
-13.46
-14.43
-15.96
-18.45
-20.85
-23.35
-26.07
-29.12
-32.14
-34.70
-36.64
-37.97
-38.99
-40.02
-41.59
-43.48
-45.21
-45.57
-43.55
-38.89
-31.71
-22.08
-10.12
3.78
19.51
36.66
55.72
77.08
98.49
115.77
125.46
126.73
121.25
115.66
111.01
107.42
104.84
103.38
100.97
97.12
91.33
82.45
69.05
49.41
23.53
-7.07
-39.77
-71.11
-97.17
-115.15
-124.04
-124.72
-119.94
-112.49
-105.02
-99.70
-97.79
-99.15
-102.60
-106.07
-106.96
-103.08
-92.78
-75.92
-54.06
-29.92
-6.20
14.85
31.81
43.96
50.88
52.64
49.85
43.91
37.12
32.35
32.23
38.45
51.25
69.58
91.48
114.55
136.24
154.18
166.40
171.58
169.32
160.22
145.74
127.82
108.39
88.90
70.12
52.08
34.40
16.59
-1.50
-19.43
-36.09
-49.97
-59.63
-64.26
-63.99
-59.86
-53.45
-46.48
-40.24
-35.48
-32.39
-30.83
-30.54
-31.26
-32.77
-34.81
-36.95
-38.57
-38.96
-37.53
-33.99
-28.56
-21.88
-14.81
-8.17
-2.49
2.08
5.69
8.64
11.19
13.45
15.28
16.32
16.01
13.66
8.78
1.29
-8.16
-18.14
-26.77
-32.28
-33.62
-30.87
-25.07
-17.79
-10.53
-4.22
0.87
4.86
7.93
10.11
11.18
10.86
8.99
5.52
0.47
-6.19
-14.60
-24.89
-36.98
-50.47
-64.61
-78.47
-91.10
-101.62
-109.23
-113.25
-113.12
-108.60
-99.92
-87.84
-73.53
-58.20
-42.68
-27.27
-11.71
4.43
21.39
39.02
56.69
73.49
88.52
101.03
110.54
116.80
119.67
119.11
115.20
108.29
99.09
88.50
77.43
66.49
55.88
45.41
34.76
23.74
12.42
1.14
-9.58
-19.13
-26.77
-31.66
-33.11
-30.82
-25.37
-18.38
-12.18
-9.10
-10.63
-16.82
-26.25
-36.57
-45.43
-51.27
-53.70
-53.37
-51.42
-48.90
-46.40
-44.02
-41.62
-39.09
-36.49
-33.89
-31.16
-27.86
-23.34
-17.14
-9.36
-0.80
7.29
13.73
17.90
20.00
20.80
21.19
21.73
22.34
22.44
21.35
18.67
14.55
9.63
4.81
1.00
-1.06
-0.80
2.27
8.55
18.09
30.29
43.69
56.04
64.89
68.41
66.00
58.55
47.97
36.44
25.65
16.31
8.32
1.19
-5.53
-12.01
-18.22
-24.24
-30.35
-36.87
-43.85
-50.78
-56.63
-60.25
-61.06
-59.44
-56.87
-55.37
-56.70
-61.72
-70.06
-80.33
-90.65
-99.23
-104.76
-106.57
-104.50
-98.77
-89.81
-78.16
-64.55
-49.85
-35.03
-21.12
-9.00
0.82
8.21
13.39
16.74
18.58
19.08
18.29
16.31
13.32
9.58
5.25
0.32
-5.40
-12.10
-19.80
-28.28
-37.00
-45.31
-52.49
-57.95
-61.25
-62.14
-60.50
-56.32
-49.70
-40.80
-29.90
-17.40
-3.84
10.13
23.80
36.42
47.27
55.73
61.50
64.69
65.90
66.02
65.93
66.15
66.72
67.35
67.69
67.66
67.47
67.40
67.56
67.64
66.99
64.86
60.73
54.56
46.78
38.08
29.13
20.27
11.34
1.78
-9.08
-21.69
-35.91
-50.99
-65.50
-77.39
-84.10
-82.91
-71.68
-49.82
-19.12
16.18
50.25
77.36
93.60
97.94
92.06
79.34
63.45
47.27
32.57
20.21
10.54
3.61
-0.78
-3.13
-4.18
-4.75
-5.55
-6.98
-9.13
-11.81
-14.73
-17.69
-20.69
-23.96
-27.80
-32.29
-37.00
-40.83
-42.22
-39.63
-32.22
-20.25
-5.15
10.92
25.75
37.74
46.10
50.88
52.59
51.91
49.44
45.73
41.25
36.46
31.73
27.21
22.74
17.90
12.14
5.09
-3.24
-12.36
-21.43
-29.51
-35.91
-40.41
-43.29
-45.17
-46.75
-48.57
-50.90
-53.72
-56.74
-59.35
-60.57
-59.04
-53.33
-42.39
-26.13
-5.71
16.58
37.91
55.63
67.98
74.27
74.78
70.44
62.47
52.31
41.59
32.02
25.09
21.61
21.40
23.25
25.33
25.83
23.58
18.36
10.88
2.31
-6.23
-14.03
-20.93
-27.05
-32.48
-36.99
-39.92
-40.29
-37.05
-29.35
-16.89
-0.22
19.12
38.66
55.53
67.16
72.10
70.46
63.83
54.56
44.86
36.06
28.37
21.16
13.56
5.02
-4.50
-14.57
-24.61
-34.10
-42.73
-50.29
-56.59
-61.42
-64.66
-66.33
-66.84
-66.87
-67.10
-67.74
-68.26
-67.32
-63.27
-54.91
-42.10
-25.90
-8.10
9.55
25.98
40.96
54.71
67.30
78.23
86.54
91.32
92.21
89.64
84.56
78.00
70.67
62.90
54.92
47.08
40.06
34.64
31.44
30.54
31.39
32.80
33.19
30.99
24.99
14.75
0.79
-15.26
-31.01
-43.83
-51.57
-53.21
-49.10
-40.69
-29.95
-18.75
-8.38
0.51
7.75
13.57
18.43
22.96
27.59
32.14
35.69
36.90
34.83
29.72
23.27
17.85
15.39
16.29
19.27
22.25
23.56
22.84
20.85
18.63
16.34
13.06
7.27
-1.96
-13.94
-26.39
-36.14
-40.58
-38.73
-31.71
-22.21
-13.41
-7.80
-6.38
-8.60
-12.75
-16.73
-18.90
-18.52
-15.87
-12.09
-8.69
-7.20
-8.77
-14.02
-22.82
-34.14
-46.09
-56.00
-60.93
-58.46
-47.42
-28.50
-4.06
22.39
47.22
67.54
81.69
89.26
90.81
87.56
81.14
73.49
66.56
62.03
60.92
63.35
68.55
75.15
81.61
86.65
89.45
89.61
86.82
80.71
70.86
57.09
39.82
20.22
0.04
-18.94
-35.42
-48.96
-59.85
-68.69
-75.90
-81.53
-85.41
-87.55
-88.46
-89.10
-90.58
-93.69
-98.52
-104.48
-110.40
-114.81
-116.20
-113.23
-105.25
-92.80
-77.83
-63.30
-52.06
-45.48
-42.70
-40.87
-36.46
-26.89
-11.64
7.74
28.57
48.26
65.20
78.78
88.96
95.84
99.50
100.24
98.85
96.53
94.45
93.28
92.90
92.46
90.87
87.22
81.07
72.42
61.56
48.81
34.59
19.49
4.39
-9.56
-21.19
-29.67
-34.72
-36.66
-36.17
-34.04
-30.97
-27.59
-24.57
-22.68
-22.80
-25.64
-31.39
-39.51
-48.65
-57.02
-62.77
-64.52
-61.67
-54.60
-44.48
-33.06
-22.18
-13.43
-7.80
-5.55
-6.35
-9.51
-14.39
-20.60
-28.04
-36.67
-46.20
-55.95
-64.88
-71.78
-75.57
-75.51
-71.17
-62.58
-50.16
-34.85
-18.10
-1.79
12.19
22.43
28.44
30.81
30.79
29.73
28.51
27.17
25.19
21.85
16.66
9.64
1.26
-7.67
-16.09
-22.86
-26.89
-27.65
-25.53
-22.12
-19.84
-21.14
-27.50
-38.68
-52.77
-66.87
-78.05
-84.21
-84.46
-79.03
-68.90
-55.36
-39.72
-23.28
-7.24
7.27
19.26
27.93
32.81
33.96
32.14
28.99
26.64
27.03
31.31
39.38
49.75
59.98
67.73
71.49
71.16
67.65
62.13
55.53
48.37
40.81
33.08
25.60
18.83
13.05
7.99
2.53
-4.25
-12.38
-21.11
-29.18
-35.26
-38.55
-38.48
-34.98
-29.27
-22.23
-14.19
-5.89
1.40
6.03
6.44
2.73
-4.17
-14.68
-27.99
-41.81
-54.10
-63.40
-68.85
-70.38
-67.04
-58.72
-49.18
-41.09
-34.31
-28.04
-21.23
-12.81
-2.64
10.41
26.72
42.29
55.28
67.59
81.53
99.01
121.89
136.61
131.73
124.94
122.90
117.58
106.10
88.00
65.19
42.94
26.85
22.56
32.13
49.88
69.27
85.98
96.58
99.72
98.27
96.29
98.24
106.17
116.91
127.61
137.64
146.85
142.58
118.90
79.80
37.48
2.66
-22.12
-38.56
-49.13
-56.52
-60.91
-62.39
-60.87
-56.89
-51.89
-48.09
-46.52
-46.77
-48.04
-50.08
-51.54
-52.00
-52.81
-56.09
-63.56
-75.29
-89.81
-105.21
-119.77
-127.83
-125.61
-114.48
-99.56
-85.57
-74.36
-65.29
-57.08
-48.83
-42.79
-39.17
-38.47
-40.53
-44.19
-47.74
-49.82
-50.08
-44.47
-32.83
-17.21
-1.08
12.71
22.54
27.36
28.14
25.81
21.38
15.31
8.39
1.10
-4.81
-8.16
-8.26
-4.92
1.40
9.86
18.86
27.01
33.26
37.34
39.55
40.56
41.01
41.02
40.22
37.66
32.73
25.31
16.09
6.18
-3.09
-10.47
-15.26
-17.21
-16.65
-14.12
-10.29
-5.88
-1.59
1.94
4.24
4.98
4.05
1.51
-2.26
-6.67
-11.03
-14.76
-17.45
-18.92
-19.28
-18.83
-18.03
-17.37
-17.19
-17.64
-18.56
-19.57
-20.17
-20.02
-19.11
-17.81
-16.69
-16.39
-17.27
-19.23
-21.67
-23.43
-23.04
-19.06
-10.66
2.06
17.89
34.73
50.15
62.04
69.16
71.34
69.15
63.53
55.42
45.73
35.48
25.75
17.66
11.98
8.90
7.85
7.66
7.23
6.00
4.11
2.11
0.44
-0.88
-2.37
-4.73
-8.71
-14.27
-20.40
-25.59
-28.45
-28.21
-24.80
-18.55
-9.90
0.12
10.88
22.08
33.27
43.25
50.20
52.33
48.69
39.49
24.83
5.63
-16.54
-40.23
-64.57
-89.12
-113.20
-135.54
-154.62
-170.58
-183.63
-193.40
-198.95
-199.26
-193.50
-180.94
-161.31
-127.09
-78.50
-23.61
26.27
63.42
86.38
97.97
102.52
104.19
106.08
108.51
111.03
113.16
114.05
112.20
105.63
93.01
74.40
51.65
27.92
6.54
-7.71
-10.97
-2.83
12.67
28.53
37.48
35.15
21.28
0.35
-20.48
-35.14
-41.50
-41.56
-38.95
-36.90
-36.88
-38.97
-42.64
-46.92
-51.04
-54.62
-57.15
-56.97
-52.78
-44.58
-33.82
-22.39
-11.48
-1.58
7.13
14.73
22.53
31.25
40.56
49.63
58.00
65.83
73.15
79.31
83.96
89.01
96.37
106.68
119.32
133.19
147.30
160.50
171.41
168.21
145.71
108.38
66.63
28.82
-1.71
-24.76
-39.53
-49.01
-54.92
-56.56
-53.31
-45.85
-35.12
-21.72
-5.93
10.91
25.90
36.61
42.62
44.11
40.19
29.41
11.27
-12.92
-39.96
-64.87
-81.21
-83.53
-67.62
-38.34
-9.31
6.50
5.30
-8.12
-25.84
-41.28
-51.79
-58.03
-62.43
-66.01
-67.32
-64.05
-55.45
-44.40
-32.87
-23.37
-17.50
-15.70
-16.66
-17.65
-16.13
-11.08
-3.40
5.30
12.73
17.26
17.97
14.93
9.81
3.99
-1.60
-6.82
-11.68
-16.78
-22.32
-27.99
-32.85
-35.57
-35.26
-31.72
-26.79
-20.71
-14.20
-7.95
-2.53
1.81
5.16
7.78
9.97
11.92
13.80
15.29
16.26
16.64
16.76
17.38
19.35
23.34
29.47
37.40
46.13
54.51
61.47
66.26
68.46
67.97
65.01
60.01
53.69
46.70
39.67
33.06
27.00
21.25
15.22
8.23
-0.13
-9.64
-19.47
-28.45
-35.64
-40.87
-44.94
-49.26
-55.18
-63.35
-73.40
-84.26
-94.60
-103.33
-109.75
-113.34
-113.56
-109.83
-101.62
-88.90
-72.27
-53.04
-32.96
-13.96
2.27
14.44
21.74
23.83
20.90
14.07
5.59
-1.43
-3.88
0.34
11.33
26.77
42.50
53.88
57.84
53.98
44.45
32.48
21.24
12.53
6.53
2.16
-1.96
-6.24
-9.72
-10.61
-7.41
0.79
13.92
31.23
51.82
72.53
89.37
99.32
102.33
100.20
95.03
87.70
78.47
67.75
56.10
44.29
32.91
23.50
14.97
6.89
-0.62
-6.81
-11.02
-13.38
-14.82
-17.05
-21.54
-29.48
-40.40
-53.19
-66.27
-77.99
-86.96
-91.83
-91.40
-84.99
-74.65
-60.92
-45.62
-30.93
-18.48
-8.79
-1.06
6.38
15.25
26.12
39.11
51.95
62.30
68.84
71.82
72.62
72.80
74.72
77.29
79.09
78.39
74.25
66.82
57.11
46.54
36.29
26.74
16.80
5.83
-7.16
-22.77
-40.81
-59.98
-78.00
-92.11
-99.79
-99.65
-91.41
-76.62
-58.14
-39.64
-24.85
-16.70
-16.65
-24.29
-37.55
-53.03
-67.21
-77.32
-81.92
-80.93
-75.23
-66.05
-54.56
-41.72
-28.27
-15.00
-2.75
7.74
15.95
21.67
24.98
26.19
25.80
24.42
22.68
21.08
19.91
19.31
19.37
20.28
22.26
25.58
30.40
36.77
44.48
53.07
61.75
69.39
74.64
76.46
74.62
70.09
64.91
61.29
60.52
62.25
64.42
64.04
58.37
46.01
27.49
5.27
-16.87
-34.92
-45.90
-48.89
-45.43
-38.96
-33.59
-32.48
-36.65
-44.72
-53.69
-60.22
-61.77
-57.18
-46.55
-30.78
-11.18
10.76
33.41
55.00
73.77
88.12
96.85
99.31
95.43
85.64
70.94
52.79
33.11
14.05
-2.34
-14.71
-22.67
-26.87
-28.61
-29.21
-29.55
-29.93
-30.31
-30.80
-31.78
-33.73
-36.77
-40.32
-43.16
-43.93
-41.85
-37.13
-30.83
-24.36
-18.79
-14.47
-11.09
-8.03
-4.82
-1.50
1.41
3.04
2.53
-0.63
-6.47
-14.47
-23.76
-33.43
-42.79
-51.54
-59.65
-67.08
-73.50
-78.23
-80.40
-79.37
-75.08
-68.24
-60.12
-52.19
-45.71
-41.33
-38.98
-37.96
-37.14
-35.28
-31.36
-24.80
-15.72
-4.98
6.00
15.60
22.48
25.92
25.92
23.12
18.45
12.84
6.96
1.11
-4.71
-10.58
-16.64
-22.84
-28.82
-33.74
-36.49
-35.96
-31.47
-23.01
-11.21
2.46
15.95
27.09
34.22
36.57
34.57
29.67
24.08
20.36
20.12
23.44
29.04
35.20
40.63
44.95
48.64
52.69
58.42
65.98
74.39
82.21
88.74
94.27
99.53
104.87
109.99
114.57
117.60
117.82
114.38
107.18
96.66
83.15
66.53
41.48
7.58
-30.06
-63.75
-88.43
-103.23
-109.95
-111.21
-110.75
-109.32
-105.79
-99.20
-89.38
-77.16
-63.98
-51.37
-40.16
-31.05
-23.43
-14.81
-2.43
15.08
36.38
57.28
72.11
76.00
66.84
46.35
19.90
-6.02
-25.98
-37.07
-38.93
-32.72
-19.80
-1.29
21.72
46.42
67.66
80.69
83.97
79.25
69.32
56.59
44.82
34.28
25.65
20.02
18.36
20.86
26.66
33.52
39.50
43.02
42.96
39.51
34.14
29.23
27.10
28.89
33.96
40.29
45.28
46.59
43.45
36.64
27.88
18.82
10.24
1.88
-7.00
-17.01
-28.29
-39.92
-50.22
-57.19
-59.24
-55.97
-48.54
-39.33
-31.21
-26.54
-26.19
-29.40
-34.31
-38.87
-41.62
-42.01
-40.12
-36.27
-30.77
-23.93
-16.29
-8.88
-3.00
0.25
0.38
-2.17
-6.28
-10.55
-13.89
-15.84
-16.62
-16.82
-17.07
-17.69
-18.54
-19.14
-18.84
-17.24
-14.46
-11.22
-8.61
-7.68
-9.07
-12.87
-18.71
-26.02
-34.29
-43.13
-52.16
-60.89
-68.74
-75.50
-81.64
-88.21
-96.12
-105.60
-115.98
-126.12
-135.18
-142.87
-149.83
-156.87
-163.69
-167.99
-165.97
-153.94
-130.32
-96.70
-57.02
-16.79
18.64
45.69
63.44
73.48
78.81
82.84
88.51
98.25
112.60
129.98
147.35
161.61
170.71
173.86
171.41
159.96
139.08
112.58
86.94
67.64
57.15
55.26
59.35
65.31
68.79
66.89
58.51
44.54
27.36
10.08
-4.29
-14.19
-18.81
-17.47
-9.66
3.74
19.77
33.33
38.80
32.42
13.38
-15.38
-45.35
-67.21
-75.57
-70.97
-58.63
-46.66
-38.29
-34.30
-33.32
-33.10
-31.87
-28.89
-24.05
-17.17
-7.52
6.20
24.34
46.09
68.16
85.85
94.70
92.46
79.99
60.98
40.56
22.88
10.17
2.41
-2.04
-5.25
-8.67
-12.76
-17.06
-20.75
-23.32
-24.54
-24.31
-22.51
-18.96
-13.71
-7.32
-1.13
2.99
3.05
-2.19
-12.56
-26.42
-41.11
-53.82
-62.41
-65.86
-64.17
-58.10
-48.67
-36.93
-23.85
-10.46
2.28
13.76
23.94
33.26
42.21
50.53
56.83
58.95
54.97
44.45
29.01
11.95
-3.07
-13.62
-19.24
-21.29
-21.79
-22.20
-22.77
-22.82
-21.50
-18.56
-14.56
-10.62
-7.82
-6.76
-7.36
-9.03
-11.04
-12.79
-13.99
-14.49
-14.04
-12.11
-7.98
-1.03
8.70
20.35
32.28
42.61
49.85
53.39
53.53
51.15
47.50
44.25
43.57
47.94
59.25
77.60
100.58
123.46
140.61
147.47
142.12
125.65
101.41
73.45
45.25
19.14
-3.67
-22.67
-37.95
-50.23
-60.91
-71.69
-83.85
-97.56
-111.49
-123.13
-129.46
-127.99
-117.62
-99.05
-74.51
-47.16
-20.11
4.22
24.47
40.17
51.51
59.02
63.37
65.31
65.48
64.17
61.20
56.00
48.00
37.10
24.08
10.42
-2.13
-12.32
-19.76
-24.99
-29.04
-32.94
-37.25
-42.07
-47.09
-51.92
-56.21
-59.74
-62.41
-64.36
-65.82
-67.21
-68.88
-70.94
-73.08
-74.56
-74.35
-71.49
-65.48
-56.50
-45.44
-33.62
-22.48
-13.17
-6.37
-2.30
-0.84
-1.64
-4.22
-8.01
-12.37
-16.62
-20.06
-22.03
-22.08
-20.08
-16.44
-12.03
-8.08
-5.83
-6.21
-9.55
-15.53
-23.36
-31.97
-40.26
-47.27
-52.17
-54.36
-53.37
-48.98
-41.29
-30.72
-17.98
-3.94
10.51
24.53
37.40
48.44
57.04
62.62
64.82
63.67
59.81
54.42
48.94
44.63
42.07
40.94
40.12
38.00
33.06
24.38
12.04
-2.84
-18.39
-32.65
-44.18
-52.61
-58.59
-63.44
-68.32
-73.54
-78.35
-81.16
-80.30
-74.70
-64.27
-49.89
-32.93
-14.84
3.22
20.39
36.04
49.56
60.27
67.39
70.20
68.37
62.20
52.84
42.13
32.28
25.13
21.55
21.14
22.39
23.26
22.00
17.68
10.48
1.43
-8.05
-16.64
-23.45
-28.18
-31.05
-32.69
-33.86
-35.18
-36.83
-38.38
-38.81
-36.72
-30.76
-20.18
-5.11
13.31
33.21
52.45
69.08
81.68
89.46
92.17
90.02
83.67
74.25
63.25
52.37
42.99
35.82
30.65
26.53
22.33
17.33
11.63
6.03
1.55
-1.16
-2.26
-2.75
-4.15
-7.86
-14.67
-24.30
-35.51
-46.33
-54.66
-58.80
-57.91
-52.08
-42.25
-29.88
-16.55
-3.74
7.40
16.05
21.76
24.38
24.08
21.28
16.62
10.80
4.49
-1.81
-7.86
-13.67
-19.40
-25.16
-30.77
-35.63
-38.84
-39.53
-37.35
-32.82
-27.40
-23.10
-21.72
-24.13
-29.67
-36.23
-40.91
-40.97
-34.87
-22.72
-6.16
12.39
30.49
46.42
59.22
68.50
74.02
75.54
73.00
66.86
58.41
49.57
42.36
38.14
37.07
38.13
39.56
39.72
37.79
34.04
29.69
26.16
24.41
24.32
24.66
23.49
18.88
9.69
-3.97
-20.64
-37.95
-53.21
-64.21
-69.65
-69.34
-64.02
-55.08
-44.11
-32.66
-22.05
-13.27
-6.93
-3.26
-2.05
-2.64
-4.06
-5.28
-5.56
-4.73
-3.24
-1.93
-1.59
-2.49
-4.14
-5.50
-5.51
-3.63
-0.26
3.45
6.04
6.43
4.37
0.55
-3.70
-6.80
-7.39
-4.53
2.23
12.79
26.47
41.95
57.33
70.38
79.08
82.16
79.48
72.09
61.83
50.70
40.28
31.39
24.11
18.16
13.25
9.38
6.81
5.91
6.80
9.17
12.16
14.56
15.07
12.69
6.99
-1.85
-13.17
-26.04
-39.45
-52.40
-63.80
-72.51
-77.40
-77.70
-73.38
-65.34
-55.28
-45.16
-36.52
-30.01
-25.31
-21.50
-17.71
-13.53
-9.19
-5.23
-2.16
-0.11
1.24
2.42
3.87
5.71
7.65
9.21
9.87
9.41
8.00
6.23
4.84
4.49
5.43
7.49
10.31
13.69
17.84
23.29
30.52
39.46
49.24
58.46
65.70
70.21
72.18
72.43
71.92
71.15
70.01
67.98
64.53
59.53
53.28
46.42
39.69
33.74
28.99
25.45
22.68
19.80
15.80
9.88
1.75
-8.30
-19.59
-31.47
-43.62
-55.98
-68.50
-80.72
-91.59
-99.63
-103.43
-102.10
-95.69
-85.11
-71.87
-57.61
-43.74
-31.28
-20.80
-12.53
-6.35
-1.94
1.33
4.14
7.12
10.48
13.80
16.12
16.17
12.97
6.35
-2.76
-12.54
-20.76
-25.60
-26.25
-23.23
-18.12
-13.08
-10.00
-10.04
-13.17
-18.37
-23.88
-27.83
-28.71
-25.71
-18.86
-8.80
3.36
16.39
29.07
40.32
49.30
55.50
58.80
59.52
58.21
55.37
51.20
45.56
38.22
29.32
19.65
10.61
3.76
0.36
0.79
4.53
10.43
17.14
23.65
29.29
33.78
37.02
39.18
40.55
41.65
43.11
45.50
49.11
53.76
58.90
63.81
67.97
71.03
72.76
72.78
70.47
65.09
55.96
42.79
26.14
7.32
-11.84
-29.72
-45.22
-57.89
-67.62
-74.60
-78.99
-80.74
-79.61
-75.31
-67.89
-57.75
-45.59
-32.24
-18.63
-6.75
1.40
5.57
7.97
11.68
19.28
30.85
45.05
59.71
72.69
82.66
87.77
87.31
81.34
70.50
55.89
38.95
21.01
3.07
-14.04
-29.70
-43.31
-54.67
-63.96
-71.76
-78.63
-84.97
-90.83
-95.69
-98.72
-99.03
-96.29
-90.83
-83.54
-75.45
-67.46
-60.17
-53.63
-47.57
-41.44
-34.87
-27.73
-20.18
-12.45
-4.76
2.75
9.92
16.45
21.84
25.31
26.10
23.78
18.47
10.92
2.24
-6.40
-14.20
-20.83
-26.44
-31.43
-36.16
-40.72
-44.95
-48.52
-51.17
-52.87
-53.82
-54.42
-55.10
-56.20
-57.79
-59.53
-60.66
-60.09
-56.75
-50.03
-40.09
-27.91
-14.86
-2.13
9.79
21.20
32.84
45.29
58.48
71.54
83.08
91.64
96.10
95.90
91.12
82.54
71.48
59.67
48.76
39.85
33.05
27.62
22.35
16.27
9.06
1.07
-7.13
-15.16
-23.10
-31.15
-39.24
-46.58
-51.79
-53.31
-50.05
-41.84
-29.45
-14.34
1.81
17.50
31.67
43.70
53.39
60.85
66.35
70.22
72.60
73.43
72.39
69.15
63.58
55.96
46.91
37.22
27.54
18.17
9.05
-0.13
-9.68
-19.81
-30.60
-42.00
-53.84
-65.74
-77.01
-86.57
-93.06
-95.05
-91.38
-81.54
-66.00
-46.38
-25.33
-5.99
8.80
17.34
19.52
16.73
11.22
5.19
0.10
-3.47
-5.58
-6.50
-6.40
-5.33
-3.42
-1.04
1.18
2.56
2.66
1.44
-0.71
-3.19
-5.53
-7.65
-9.91
-12.87
-16.91
-21.83
-26.72
-30.27
-31.22
-28.85
-23.25
-15.16
-5.52
4.89
15.57
26.20
36.31
45.26
52.22
56.51
57.79
56.17
52.09
46.12
38.86
30.90
22.87
15.49
9.52
5.58
3.94
4.31
5.76
6.79
5.61
0.64
-8.99
-22.87
-39.16
-54.90
-66.82
-72.43
-70.80
-62.90
-51.13
-38.44
-27.38
-19.46
-15.01
-13.56
-14.31
-16.55
-19.86
-23.98
-28.59
-33.21
-37.10
-39.50
-39.83
-37.90
-33.93
-28.43
-21.89
-14.56
-6.50
2.26
11.47
20.40
28.09
33.60
36.34
36.35
34.29
31.28
28.49
26.85
26.92
28.83
32.50
37.77
44.44
52.19
60.34
67.85
73.42
75.88
74.53
69.36
61.01
50.45
38.67
26.53
14.71
3.85
-5.49
-12.88
-18.15
-21.50
-23.42
-24.56
-25.47
-26.44
-27.48
-28.36
-28.81
-28.61
-27.73
-26.27
-24.37
-22.21
-20.04
-18.14
-16.87
-16.58
-17.40
-19.19
-21.49
-23.73
-25.42
-26.36
-26.54
-25.99
-24.59
-22.12
-18.36
-13.45
-7.99
-2.92
0.86
2.92
3.52
3.47
3.68
4.66
6.36
8.28
9.89
10.99
11.77
12.62
13.81
15.34
17.09
19.05
21.48
24.79
29.13
34.15
38.84
41.92
42.30
39.49
33.71
25.74
16.54
7.04
-2.02
-10.01
-16.46
-21.04
-23.56
-24.01
-22.50
-19.18
-14.20
-7.72
-0.03
8.39
16.89
24.84
31.84
37.93
43.48
48.93
54.40
59.55
63.59
65.56
64.56
60.00
51.62
39.53
24.31
7.23
-9.81
-24.55
-35.02
-40.28
-40.80
-38.21
-34.58
-31.63
-30.10
-29.81
-30.01
-29.88
-28.86
-26.67
-23.23
-18.50
-12.58
-5.82
1.04
6.92
10.67
11.54
9.64
6.12
3.01
2.60
6.66
15.71
28.72
43.28
56.36
65.04
67.38
62.75
51.81
36.22
18.13
-0.30
-17.24
-31.37
-41.96
-48.85
-52.37
-53.18
-52.10
-49.77
-46.52
-42.25
-36.64
-29.51
-21.16
-12.52
-5.00
-0.03
1.45
-0.58
-5.13
-10.39
-14.15
-14.37
-9.68
0.18
14.11
29.63
43.42
52.12
53.38
46.69
33.66
17.44
1.67
-10.79
-18.65
-22.25
-22.95
-22.21
-20.90
-19.18
-16.83
-13.76
-10.36
-7.39
-5.62
-5.51
-7.00
-9.69
-13.21
-17.37
-22.12
-27.22
-31.96
-35.07
-35.06
-30.83
-22.23
-10.32
2.98
15.54
25.75
33.03
37.78
41.04
43.86
46.88
50.07
52.95
54.77
54.81
52.54
47.74
40.62
31.87
22.67
14.44
8.51
5.62
5.54
7.10
8.45
7.59
3.05
-5.70
-18.03
-32.30
-46.29
-57.80
-65.09
-67.28
-64.34
-56.96
-46.20
-33.27
-19.29
-5.25
8.02
19.86
29.84
37.63
42.96
45.60
45.33
42.04
35.81
27.03
16.21
4.02
-8.90
-21.77
-33.73
-43.85
-51.35
-55.91
-57.87
-58.23
-58.29
-59.26
-61.85
-66.06
-71.20
-76.05
-79.18
-79.17
-74.97
-66.11
-52.92
-36.50
-18.51
-0.89
14.63
26.79
35.07
39.69
41.47
41.61
41.31
41.41
42.21
43.45
44.51
44.79
43.98
42.26
40.16
38.34
37.19
36.75
36.56
35.94
34.23
31.04
26.53
21.35
16.59
13.48
13.16
16.30
23.04
32.93
45.10
58.45
71.87
84.41
95.27
103.88
109.82
112.79
112.54
108.86
101.63
90.89
76.93
60.37
42.07
22.88
3.49
-15.71
-34.54
-52.74
-69.85
-85.21
-98.23
-108.72
-117.02
-123.85
-129.87
-135.15
-138.96
-140.02
-137.00
-129.20
-116.84
-100.97
-83.15
-64.90
-47.36
-31.23
-16.82
-4.16
6.93
16.69
25.35
32.97
39.33
43.94
46.24
45.79
42.48
36.62
28.79
19.72
10.06
0.27
-9.45
-19.14
-28.89
-38.81
-48.79
-58.52
-67.38
-74.55
-79.05
-79.92
-76.35
-67.96
-54.94
-38.21
-19.26
0.18
18.57
34.88
48.69
59.99
69.03
76.02
81.17
84.72
86.97
88.24
88.74
88.47
87.24
84.93
81.53
77.33
72.71
67.91
62.84
56.98
49.60
40.03
27.98
13.77
-1.58
-16.54
-29.35
-38.48
-43.03
-42.95
-39.07
-32.82
-25.81
-19.48
-14.86
-12.53
-12.68
-15.21
-19.81
-26.09
-33.56
-41.78
-50.38
-58.96
-67.06
-74.05
-79.26
-82.18
-82.69
-81.20
-78.40
-74.99
-71.26
-66.99
-61.63
-54.65
-45.86
-35.62
-24.73
-14.19
-5.08
1.68
5.46
6.21
4.65
2.36
1.40
3.70
10.28
20.72
33.22
45.18
54.33
59.67
61.99
63.49
66.75
73.45
83.58
95.38
106.19
113.58
116.31
114.48
109.06
101.11
91.20
79.32
65.22
48.79
30.38
10.70
-9.30
-28.59
-46.20
-61.25
-72.99
-80.80
-84.35
-83.62
-78.99
-71.30
-61.82
-52.14
-43.83
-38.19
-35.89
-36.88
-40.42
-45.34
-50.35
-54.39
-56.85
-57.69
-57.37
-56.53
-55.80
-55.51
-55.67
-56.01
-56.16
-55.65
-53.88
-50.11
-43.66
-34.21
-22.14
-8.60
4.90
17.28
28.38
39.10
50.83
64.58
80.20
96.31
110.70
121.23
126.50
126.18
120.79
111.28
98.67
83.77
67.36
50.20
33.20
17.36
3.42
-8.35
-18.26
-26.78
-34.12
-39.77
-42.73
-42.08
-37.79
-31.10
-24.18
-19.23
-17.60
-19.35
-23.49
-28.71
-33.92
-38.49
-41.94
-43.67
-42.93
-39.11
-32.20
-23.03
-13.20
-4.46
1.74
4.72
4.55
1.85
-2.71
-8.76
-16.22
-25.05
-35.08
-45.80
-56.54
-66.76
-76.09
-84.46
-91.82
-97.90
-102.19
-104.13
-103.56
-100.94
-97.20
-93.21
-89.43
-85.65
-80.96
-74.09
-63.96
-50.07
-32.75
-12.95
8.33
29.93
50.72
69.78
86.33
99.64
108.92
113.54
113.60
110.73
107.08
104.51
103.82
104.90
107.37
111.21
116.84
124.77
135.41
147.11
156.82
162.17
163.42
163.69
167.00
175.37
187.26
198.89
204.48
199.13
181.18
153.02
119.54
85.73
54.92
21.64
-13.62
-46.07
-69.15
-78.83
-75.24
-62.49
-45.55
-31.03
-24.08
-25.67
-34.52
-47.54
-61.27
-73.21
-81.11
-83.96
-82.42
-78.98
-76.04
-76.08
-79.85
-87.80
-97.82
-107.22
-113.90
-117.26
-118.14
-114.91
-108.37
-100.38
-92.95
-87.09
-82.45
-77.49
-70.03
-57.96
-39.68
-15.74
11.78
39.82
65.74
87.90
106.00
120.73
133.30
144.73
154.80
162.25
164.88
160.33
146.66
123.03
90.22
50.76
8.48
-32.68
-69.44
-99.98
-123.86
-141.43
-153.07
-158.60
-157.51
-149.75
-136.67
-120.98
-106.15
-94.90
-88.06
-84.51
-81.89
-77.99
-71.90
-64.39
-56.88
-50.66
-45.76
-40.95
-34.76
-26.11
-14.87
-1.97
10.89
22.21
30.65
35.74
37.88
37.67
35.86
33.15
29.95
26.13
21.48
15.25
6.86
-1.00
-5.96
-6.55
-2.35
6.52
17.45
30.31
44.02
56.49
65.31
68.04
62.84
49.79
30.95
9.55
-10.80
-27.78
-40.28
-48.06
-51.66
-51.66
-48.49
-42.77
-35.62
-28.39
-22.63
-19.25
-18.00
-17.97
-17.86
-16.62
-13.97
-10.54
-7.43
-6.16
-8.03
-13.67
-22.76
-33.69
-43.66
-49.56
-49.18
-42.26
-30.93
-18.72
-8.95
-3.26
-1.04
0.00
2.28
7.06
13.90
21.15
27.08
30.80
32.58
33.36
34.09
35.08
35.85
35.38
32.55
26.87
18.72
9.38
0.67
-5.84
-9.35
-10.09
-9.11
-7.64
-6.64
-6.49
-7.12
-8.31
-9.89
-11.70
-13.37
-14.20
-13.28
-9.80
-3.46
5.39
15.84
26.78
37.31
46.85
55.12
61.97
67.32
71.18
73.77
75.63
77.46
79.81
82.70
85.46
86.87
85.42
79.83
69.24
53.35
32.40
7.16
-20.84
-49.21
-74.82
-94.36
-105.32
-106.74
-99.64
-86.55
-70.56
-54.20
-38.77
-24.23
-9.77
5.51
22.11
39.94
58.56
77.49
96.41
115.09
133.08
149.48
162.77
171.14
173.11
168.23
157.45
143.02
127.73
113.91
102.72
93.86
85.96
77.29
66.42
52.62
35.83
16.45
-4.83
-27.14
-49.46
-70.61
-89.46
-105.13
-117.18
-125.52
-130.32
-131.81
-130.29
-126.20
-120.20
-113.09
-105.62
-98.31
-91.31
-84.50
-77.71
-70.91
-64.31
-58.26
-53.05
-48.78
-45.24
-41.94
-38.20
-33.25
-26.41
-17.29
-6.06
6.46
18.76
29.01
35.55
37.45
34.81
28.82
21.35
14.36
9.31
6.91
7.03
8.91
11.37
13.06
12.87
10.17
5.11
-1.41
-8.05
-13.57
-17.28
-19.28
-20.32
-21.35
-23.02
-25.46
-28.31
-31.00
-33.13
-34.65
-35.86
-37.23
-39.13
-41.73
-44.94
-48.46
-52.02
-55.33
-58.07
-59.67
-59.33
-56.10
-49.25
-38.65
-24.89
-9.22
6.82
21.83
34.77
45.12
52.77
58.06
61.64
64.46
67.47
71.36
76.13
81.09
85.17
87.43
87.51
85.74
82.73
78.93
74.40
69.03
62.92
56.67
51.04
46.45
42.67
39.08
35.54
33.08
33.84
40.11
52.91
71.13
91.81
111.28
126.31
134.69
134.80
125.28
105.19
75.03
37.75
-1.12
-34.90
-58.17
-68.84
-68.72
-62.29
-54.43
-48.41
-45.07
-43.46
-42.10
-40.14
-37.76
-35.82
-35.21
-36.27
-38.67
-41.55
-43.87
-44.78
-43.83
-41.01
-36.77
-31.81
-26.98
-23.05
-20.57
-19.88
-21.09
-24.23
-29.25
-36.04
-44.30
-53.47
-62.70
-71.03
-77.65
-82.06
-84.19
-84.27
-82.72
-80.02
-76.69
-73.19
-69.94
-67.15
-64.80
-62.65
-60.53
-58.46
-56.76
-55.73
-55.28
-54.74
-52.86
-48.32
-40.33
-29.01
-15.36
-0.85
13.24
26.14
37.63
47.77
56.46
63.24
67.45
68.48
66.21
61.16
54.38
47.17
40.66
35.59
32.22
30.48
30.16
31.09
33.11
35.92
38.82
40.65
39.90
35.12
25.51
11.32
-5.92
-23.71
-39.16
-49.74
-54.02
-51.91
-44.62
-34.13
-22.55
-11.61
-2.39
4.68
9.60
12.56
13.84
13.88
13.34
13.05
13.88
16.38
20.54
25.74
31.07
35.67
38.97
40.71
40.62
38.30
33.19
25.03
14.19
1.85
-10.42
-21.30
-30.32
-38.08
-45.66
-53.87
-62.50
-70.38
-75.99
-78.34
-77.55
-74.60
-70.56
-65.83
-59.68
-50.55
-36.90
-18.23
4.21
27.46
47.65
61.17
65.97
62.17
52.03
39.02
26.60
17.08
11.22
8.39
7.34
6.90
6.31
5.10
2.78
-1.22
-7.41
-15.88
-26.11
-37.09
-47.71
-57.18
-65.19
-71.81
-77.06
-80.67
-82.01
-80.38
-75.37
-67.11
-56.26
-43.79
-30.73
-17.93
-6.05
4.42
13.10
19.77
24.39
27.21
28.58
28.97
28.75
28.15
27.28
26.20
24.95
23.58
22.11
20.48
18.60
16.33
13.55
10.19
6.17
1.43
-4.14
-10.70
-18.38
-27.15
-36.68
-46.22
-54.59
-60.33
-62.11
-59.09
-51.23
-39.39
-25.07
-10.05
4.02
15.97
25.18
31.52
35.22
36.68
36.33
34.53
31.59
27.77
23.37
18.80
14.51
10.94
8.41
6.96
6.36
6.19
5.98
5.31
4.02
2.16
0.02
-2.05
-3.72
-4.90
-5.71
-6.54
-7.97
-10.56
-14.61
-19.95
-25.75
-30.56
-32.57
-30.21
-22.69
-10.38
5.20
21.88
37.51
50.56
60.42
67.20
71.36
73.39
73.59
72.22
69.65
66.46
63.40
61.15
60.06
60.09
60.80
61.52
61.56
60.49
58.23
55.16
51.96
49.41
48.14
48.40
49.97
52.28
54.63
56.47
57.58
58.15
58.67
59.78
62.04
65.70
70.50
75.56
79.54
81.00
78.87
72.98
64.09
53.72
43.44
34.39
26.82
20.16
13.33
5.13
-5.39
-18.82
-35.27
-54.33
-74.97
-95.65
-114.56
-130.01
-140.92
-147.07
-148.98
-147.70
-144.33
-139.81
-134.80
-129.73
-125.04
-121.13
-118.40
-117.07
-117.10
-118.20
-119.86
-121.43
-122.14
-121.06
-117.21
-109.76
-98.34
-83.24
-65.54
-46.85
-28.90
-13.10
-0.24
9.55
16.59
21.31
24.04
24.94
24.15
21.96
18.88
15.60
12.75
10.80
9.81
9.48
9.32
8.86
7.85
6.30
4.43
2.48
0.53
-1.53
-3.98
-7.16
-11.32
-16.45
-22.30
-28.27
-33.40
-36.44
-36.12
-31.48
-22.36
-9.57
5.19
19.90
32.81
42.90
49.88
53.99
55.59
55.01
52.60
48.91
44.71
40.91
38.26
37.06
37.14
37.96
38.88
39.37
39.14
38.14
36.52
34.58
32.64
30.94
29.48
27.97
25.86
22.54
17.62
11.21
4.06
-2.50
-6.87
-7.64
-4.11
3.49
14.05
25.92
37.49
47.58
55.67
61.69
65.77
67.98
68.31
66.79
63.74
59.91
56.41
54.34
54.52
57.24
62.17
68.50
75.35
81.98
88.09
93.88
99.78
106.12
112.65
118.33
121.37
119.68
111.42
95.73
73.17
45.78
16.86
-9.70
-30.16
-41.80
-43.65
-36.83
-24.38
-10.52
0.51
5.61
3.55
-4.90
-17.53
-31.62
-44.83
-55.77
-64.13
-70.33
-74.95
-78.32
-80.19
-79.86
-76.63
-70.26
-61.27
-50.92
-40.73
-31.88
-24.85
-19.41
-15.01
-11.32
-8.43
-6.70
-6.37
-7.15
-8.28
-8.86
-8.30
-6.63
-4.45
-2.54
-1.54
-1.66
-2.82
-4.75
-7.30
-10.39
-14.01
-18.12
-22.63
-27.48
-32.63
-38.00
-43.37
-48.33
-52.25
-54.61
-55.23
-54.42
-52.94
-51.64
-51.16
-51.64
-52.80
-54.12
-55.16
-55.69
-55.72
-55.46
-55.20
-55.24
-55.81
-56.93
-58.23
-58.89
-57.76
-53.59
-45.56
-33.57
-18.39
-1.48
15.42
30.77
43.56
53.39
60.40
65.00
67.62
68.66
68.43
67.29
65.63
63.90
62.46
61.47
60.80
60.07
58.85
56.81
53.86
50.13
45.91
41.53
37.28
33.35
29.84
26.76
24.01
21.39
18.69
15.82
12.93
10.58
9.67
11.20
15.98
24.21
35.38
48.27
61.30
72.98
82.26
88.72
92.52
94.22
94.54
94.18
93.78
93.83
94.71
96.61
99.55
103.23
107.05
110.09
111.22
109.39
103.79
94.12
80.60
63.93
45.04
24.83
4.11
-16.47
-36.25
-54.50
-70.43
-83.27
-92.37
-97.42
-98.40
-95.59
-89.49
-80.81
-70.51
-59.82
-50.23
-43.13
-39.43
-39.14
-41.33
-44.46
-47.06
-48.40
-48.64
-48.66
-49.43
-51.39
-54.25
-57.20
-59.44
-60.57
-60.74
-60.36
-59.78
-58.99
-57.65
-55.38
-51.94
-47.60
-43.11
-39.63
-38.37
-40.24
-45.40
-53.12
-61.75
-69.16
-73.39
-73.20
-68.48
-60.17
-49.85
-39.08
-28.91
-19.75
-11.65
-4.74
0.56
3.64
4.14
2.19
-1.53
-6.23
-11.36
-16.88
-23.21
-30.69
-39.16
-47.78
-55.27
-60.48
-62.82
-62.30
-59.60
-55.73
-51.89
-49.16
-48.33
-49.76
-53.31
-58.21
-62.87
-65.33
-63.94
-57.81
-46.98
-32.40
-15.69
1.23
16.67
30.03
41.32
50.56
57.37
61.16
61.72
59.46
55.33
50.91
48.48
49.78
54.88
61.93
68.30
71.88
71.90
68.87
64.67
62.65
65.95
76.03
91.94
111.10
130.25
145.85
154.19
146.23
116.91
70.41
19.63
-22.33
-49.39
-63.10
-69.34
-75.72
-85.55
-97.55
-108.37
-115.12
-117.00
-114.97
-110.71
-103.90
-95.53
-86.85
-78.61
-71.22
-64.98
-60.22
-56.94
-54.63
-52.68
-50.92
-48.96
-45.65
-39.62
-30.04
-17.41
-3.44
9.74
20.15
26.32
28.04
26.51
23.68
21.42
21.04
23.28
28.96
38.71
52.55
69.75
89.21
109.18
127.22
140.49
146.58
144.89
136.24
122.45
105.35
87.49
70.92
56.76
44.78
34.11
25.03
18.11
14.01
12.39
13.93
19.19
28.28
40.22
53.28
66.78
79.62
90.28
95.94
96.10
91.89
86.01
81.23
71.60
54.79
32.31
16.06
6.49
1.83
-2.45
-7.63
-14.05
-21.74
-29.51
-36.82
-44.02
-53.21
-64.77
-78.07
-91.60
-104.00
-114.12
-120.06
-120.82
-116.68
-110.11
-103.08
-97.29
-93.89
-93.73
-96.99
-102.43
-108.42
-113.48
-117.21
-119.03
-118.58
-115.53
-109.76
-100.99
-88.59
-72.24
-52.39
-30.66
-8.88
11.20
28.43
42.34
53.12
61.38
67.61
71.92
74.04
73.88
71.73
68.34
64.66
61.58
59.59
58.67
58.30
57.76
56.34
53.66
49.67
44.59
38.76
32.47
25.91
19.18
12.40
5.74
-0.62
-6.65
-12.53
-18.66
-25.47
-33.12
-41.22
-48.79
-54.48
-56.98
-55.50
-50.00
-41.27
-30.65
-19.60
-9.43
-0.96
5.43
9.78
12.32
13.43
13.51
13.06
12.62
12.77
13.99
16.58
20.52
25.62
31.55
38.03
45.03
52.67
61.17
70.58
80.63
90.73
100.12
108.17
114.59
119.46
123.02
125.39
126.37
125.40
121.87
115.51
106.61
96.12
85.44
76.05
69.27
66.05
66.93
71.83
79.86
89.33
97.98
103.55
104.45
100.28
91.75
80.33
67.56
54.60
42.04
30.20
19.42
10.32
3.64
-0.18
-1.35
-0.87
-0.27
-1.05
-4.15
-9.75
-17.28
-25.73
-34.22
-42.31
-50.05
-57.82
-66.08
-74.91
-83.80
-91.99
-98.84
-104.04
-107.78
-110.65
-113.35
-116.40
-119.98
-123.78
-127.58
-131.41
-135.47
-139.78
-143.79
-146.34
-146.04
-141.61
-132.17
-118.28
-101.77
-84.98
-70.01
-58.15
-49.77
-45.00
-43.33
-42.98
-42.74
-42.11
-40.75
-38.48
-35.30
-31.68
-29.32
-29.53
-30.96
-32.67
-34.42
-35.58
-35.55
-34.05
-31.73
-31.24
-34.44
-38.71
-42.45
-45.56
-47.71
-48.53
-47.88
-46.57
-47.61
-52.72
-57.70
-60.45
-61.45
-61.25
-60.15
-58.51
-43.79
-11.29
15.57
29.64
36.08
36.60
32.89
27.34
22.42
18.58
13.15
3.99
-5.08
-13.41
-22.68
-33.75
-45.86
-48.97
-37.52
-14.28
4.64
18.49
28.05
35.40
39.99
41.12
38.61
31.96
21.25
8.93
1.99
4.14
15.38
33.25
54.37
75.39
92.76
104.05
108.97
110.68
110.78
109.61
106.97
103.04
98.27
92.49
85.34
76.74
67.89
59.10
50.24
41.13
31.83
22.51
13.01
3.18
-6.94
-16.71
-25.74
-33.55
-39.68
-43.60
-44.98
-44.02
-41.23
-37.21
-32.32
-26.93
-21.35
-15.98
-11.22
-7.44
-4.78
-3.04
-1.80
-0.62
0.79
2.45
4.34
6.50
9.10
12.35
16.35
20.98
25.91
30.72
35.03
38.62
41.47
43.77
45.86
48.12
50.83
54.01
57.29
59.98
61.33
60.71
57.82
52.72
45.72
37.30
28.05
18.61
9.53
1.16
-6.44
-13.35
-19.55
-24.74
-28.28
-29.47
-27.91
-23.70
-17.39
-9.68
-1.08
8.12
17.65
26.99
35.25
41.52
45.31
46.88
47.14
47.15
47.62
48.59
49.65
50.30
50.33
49.86
49.10
48.11
46.65
44.40
41.20
37.22
32.88
28.48
23.85
18.32
10.97
1.16
-11.04
-24.78
-38.71
-51.47
-62.11
-70.25
-75.94
-79.46
-81.25
-81.79
-81.62
-81.22
-80.70
-79.71
-77.60
-73.92
-68.76
-62.81
-56.94
-51.68
-46.95
-42.36
-37.70
-33.38
-30.43
-29.92
-32.33
-37.20
-43.32
-49.29
-54.03
-57.02
-58.25
-57.94
-56.39
-53.87
-50.76
-47.45
-44.39
-41.90
-40.31
-39.88
-40.66
-42.53
-45.02
-47.45
-49.07
-49.30
-47.98
-45.34
-41.89
-38.29
-35.14
-32.93
-31.90
-31.93
-32.40
-32.20
-29.86
-24.02
-13.83
0.58
18.09
36.90
55.09
71.14
84.21
94.14
101.17
105.67
107.97
108.39
107.31
105.19
102.58
99.86
97.21
94.59
91.88
89.00
86.02
83.03
80.10
77.13
73.87
70.06
65.51
60.22
54.38
48.30
42.26
36.45
30.88
25.41
19.73
13.46
6.21
-2.28
-12.04
-22.81
-34.01
-44.82
-54.38
-62.09
-67.83
-72.00
-75.40
-78.89
-83.04
-88.01
-93.55
-99.16
-104.19
-107.76
-108.75
-105.87
-97.97
-84.56
-66.27
-44.89
-22.97
-3.21
12.24
22.18
26.44
25.89
22.16
17.43
13.80
12.82
14.92
19.33
24.56
29.12
32.34
34.57
36.81
40.00
44.33
49.20
53.56
56.68
58.60
60.10
62.46
66.99
74.67
85.62
98.89
112.28
122.66
126.78
122.34
108.78
87.46
60.96
32.09
3.06
-24.58
-49.52
-70.25
-85.13
-93.22
-95.08
-93.08
-90.60
-90.56
-94.12
-100.27
-106.57
-110.54
-110.74
-107.36
-101.80
-95.84
-90.92
-87.74
-86.43
-86.82
-88.80
-92.27
-97.02
-102.35
-106.95
-108.93
-106.34
-97.85
-83.34
-64.10
-42.40
-20.88
-1.70
13.84
25.36
33.00
37.08
37.89
35.70
31.00
24.65
17.88
12.08
8.51
7.83
10.01
14.30
19.46
24.18
27.46
28.85
28.38
26.39
23.26
19.19
14.16
8.04
0.68
-7.89
-17.44
-27.45
-37.09
-45.19
-50.35
-51.17
-46.68
-36.74
-22.21
-4.86
13.08
29.53
43.04
53.04
59.71
63.65
65.44
65.37
63.48
59.75
54.35
47.80
40.94
34.71
29.87
26.69
24.97
24.16
23.64
23.01
22.16
21.22
20.29
19.27
17.77
15.23
11.18
5.43
-1.79
-9.94
-18.21
-25.61
-31.00
-33.16
-31.07
-24.25
-13.17
0.74
15.37
28.52
38.58
44.85
47.56
47.49
45.56
42.49
38.87
35.22
32.17
30.39
30.33
32.02
34.95
38.14
40.47
41.02
39.31
35.38
29.75
23.18
16.45
10.19
4.85
0.65
-2.32
-4.10
-4.82
-4.74
-4.21
-3.53
-2.80
-1.83
-0.05
3.28
8.79
16.64
26.41
37.08
47.40
56.19
62.63
66.37
67.45
66.16
62.89
58.05
52.07
45.41
38.54
31.92
25.97
21.02
17.26
14.63
12.86
11.48
9.94
7.84
4.96
1.37
-2.70
-6.97
-11.28
-15.63
-20.19
-25.14
-30.68
-36.92
-43.93
-51.60
-59.58
-67.07
-72.84
-75.41
-73.49
-66.43
-54.58
-39.27
-22.48
-6.24
7.77
18.58
25.89
29.92
31.22
30.55
28.83
27.01
25.96
26.27
28.15
31.37
35.41
39.64
43.61
47.14
50.42
53.83
57.74
62.25
67.14
71.87
75.88
78.79
80.52
81.19
81.02
80.24
79.02
77.39
75.15
71.66
65.85
56.49
42.85
25.37
5.99
-12.24
-26.13
-33.60
-34.41
-30.14
-23.40
-16.74
-11.91
-9.62
-9.88
-12.47
-17.21
-23.91
-32.12
-41.00
-49.34
-55.99
-60.22
-62.02
-62.00
-61.04
-59.93
-59.03
-58.22
-57.16
-55.60
-53.59
-51.59
-50.20
-49.95
-50.98
-53.02
-55.44
-57.59
-59.01
-59.68
-59.97
-60.58
-62.26
-65.57
-70.62
-76.91
-83.32
-88.30
-90.17
-87.62
-80.14
-68.24
-53.30
-37.23
-21.92
-8.78
1.45
8.66
13.15
15.34
15.69
14.65
12.71
10.48
8.54
7.31
6.84
6.79
6.51
5.39
3.19
0.24
-2.65
-4.60
-5.08
-4.25
-2.87
-1.91
-2.12
-3.66
-6.13
-8.85
-11.27
-13.20
-14.87
-16.73
-19.19
-22.41
-26.31
-30.52
-34.49
-37.52
-38.76
-37.37
-32.67
-24.44
-13.12
0.18
13.88
26.46
36.81
44.52
49.73
52.94
54.58
54.91
54.11
52.42
50.29
48.31
47.10
47.00
48.05
50.04
52.69
55.80
59.26
62.89
66.34
68.93
69.87
68.45
64.40
57.99
50.07
41.72
34.04
27.74
23.06
19.78
17.38
15.20
12.61
9.16
4.66
-0.69
-6.18
-10.64
-12.67
-11.01
-5.04
4.90
17.58
31.19
43.94
54.55
62.50
67.97
71.52
73.80
75.36
76.50
77.29
77.61
77.17
75.66
72.80
68.47
62.72
55.72
47.69
38.77
29.13
18.92
8.45
-1.90
-11.71
-20.67
-28.68
-35.88
-42.60
-49.27
-56.13
-63.18
-69.96
-75.78
-79.89
-81.74
-81.03
-77.66
-71.57
-62.79
-51.72
-39.43
-27.66
-18.34
-12.90
-11.59
-13.36
-16.41
-19.19
-21.08
-22.55
-24.55
-27.76
-32.09
-36.79
-41.02
-44.42
-47.32
-50.42
-54.27
-58.87
-63.65
-67.70
-70.22
-70.86
-69.85
-67.82
-65.61
-63.91
-63.13
-63.29
-64.04
-64.82
-65.07
-64.54
-63.28
-61.69
-60.34
-59.66
-59.88
-60.88
-62.15
-62.90
-62.09
-58.68
-51.87
-41.41
-27.83
-12.40
3.24
17.47
29.19
37.97
43.96
47.62
49.43
49.74
48.84
47.08
44.94
43.09
42.12
42.45
44.21
47.25
51.27
55.97
60.99
65.94
70.25
73.30
74.49
73.50
70.42
65.71
60.02
53.82
47.24
39.99
31.59
21.66
10.21
-2.14
-14.16
-24.28
-30.95
-33.16
-30.75
-24.50
-15.89
-6.60
1.90
8.60
12.94
14.61
13.45
9.54
3.31
-4.29
-11.99
-18.49
-22.94
-25.14
-25.50
-24.73
-23.46
-22.06
-20.61
-19.12
-17.62
-16.27
-15.27
-14.79
-14.90
-15.66
-17.16
-19.70
-23.73
-29.73
-37.95
-48.07
-59.05
-69.20
-76.48
-79.09
-76.02
-67.46
-54.71
-39.84
-24.99
-11.86
-1.36
6.31
11.41
14.34
15.46
15.04
13.36
10.84
8.05
5.63
4.10
3.71
4.33
5.49
6.54
6.89
6.23
4.68
2.58
0.46
-1.35
-2.77
-4.04
-5.52
-7.59
-10.50
-14.30
-18.85
-23.70
-28.08
-30.93
-31.06
-27.52
-19.99
-8.96
4.26
17.92
30.36
40.45
47.77
52.55
55.30
56.57
56.63
55.59
53.52
50.65
47.43
44.53
42.53
41.70
41.88
42.48
42.70
41.86
39.56
35.79
30.84
25.07
18.83
12.27
5.41
-1.75
-9.25
-17.13
-25.46
-34.34
-43.66
-52.91
-61.00
-66.42
-67.61
-63.59
-54.42
-41.34
-26.42
-11.92
0.41
9.74
16.10
20.07
22.30
23.22
23.01
21.75
19.64
17.09
14.72
13.12
12.63
13.20
14.43
15.77
16.75
17.18
17.13
16.83
16.46
16.08
15.61
14.93
14.02
12.97
11.96
11.08
10.31
9.46
8.38
7.21
6.56
7.50
11.31
19.04
31.04
46.70
64.52
82.52
98.67
111.30
119.29
122.03
119.31
111.27
98.43
81.83
62.94
43.53
25.32
9.62
