1495097983.00
64.000000
-0.00
-0.00
-0.00
-0.00
-0.00
-0.00
-0.00
-0.00
-0.00
-0.00
0.00
0.01
0.01
-0.00
-0.03
-0.05
-0.05
0.00
0.13
0.36
0.66
1.01
1.37
1.72
2.06
2.40
2.79
3.24
3.80
4.42
5.06
5.66
6.20
6.68
7.15
7.68
8.31
9.14
10.09
11.04
11.88
12.56
13.14
13.76
14.65
15.96
17.91
20.32
22.90
25.38
27.58
29.57
31.68
34.32
37.81
42.54
48.15
54.10
59.83
64.97
69.58
74.14
79.34
85.71
93.76
103.00
112.62
121.73
129.77
136.75
143.30
150.75
157.77
166.64
177.95
191.79
206.97
220.57
228.25
225.36
208.53
176.87
132.76
80.05
23.07
-34.94
-92.44
-149.16
-205.23
-260.37
-313.74
-363.87
-409.83
-450.91
-486.50
-515.74
-537.23
-549.22
-549.96
-538.37
-514.21
-478.67
-433.88
-382.45
-327.02
-269.84
-212.63
-156.66
-102.95
-52.37
-5.90
35.58
71.43
101.35
125.50
144.38
158.69
169.15
176.37
180.75
182.57
182.07
179.51
175.23
169.65
163.18
156.15
148.81
141.30
133.69
126.02
118.33
110.69
103.16
95.80
88.68
81.83
75.25
68.95
62.95
57.25
51.86
46.78
42.03
37.59
33.45
29.61
26.07
22.81
19.83
17.11
14.67
12.48
10.54
8.83
7.35
6.07
4.97
4.05
3.27
2.62
2.09
1.65
1.30
1.01
0.79
0.61
0.48
0.37
0.29
0.22
0.18
0.14
0.11
0.09
0.08
0.07
0.06
0.05
0.05
0.06
0.07
0.08
0.11
0.14
0.17
0.21
0.25
0.30
0.35
0.40
0.45
0.50
0.54
0.58
0.61
0.65
0.68
0.71
0.75
0.79
0.84
0.91
0.99
1.08
1.19
1.33
1.48
1.66
1.86
2.08
2.32
2.60
2.91
3.26
3.62
3.99
4.35
4.68
4.99
5.34
5.77
6.31
6.96
7.71
8.46
9.16
9.78
10.33
10.89
11.53
12.32
13.31
14.45
15.63
16.77
17.79
18.64
19.38
20.05
20.64
21.01
20.87
19.84
17.55
13.77
8.55
2.22
-4.64
-11.42
-17.66
-23.24
-28.23
-32.77
-36.80
-39.94
-41.51
-40.70
-37.06
-30.72
-22.64
-14.26
-7.09
-2.30
-0.24
-0.40
-1.76
-3.44
-4.91
-6.49
-8.86
-12.73
-18.67
-26.94
-37.35
-49.04
-60.11
-67.55
-68.00
-58.83
-40.18
-16.05
6.44
19.79
19.62
6.74
-13.08
-31.76
-42.09
-40.94
-30.16
-14.90
-0.86
8.02
9.76
3.90
-9.32
-28.13
-49.32
-68.68
-81.63
-84.78
-77.03
-60.51
-38.31
-17.34
-2.00
7.10
12.94
17.80
22.58
27.38
31.78
35.86
40.54
48.11
61.26
82.27
112.60
149.01
187.37
221.54
244.42
250.00
236.55
207.42
170.31
134.46
107.44
93.13
90.56
95.26
101.52
104.75
102.22
92.97
77.19
55.87
30.74
3.64
-23.55
-48.94
-70.08
-84.36
-89.47
-84.42
-70.03
-48.62
-23.48
2.27
26.32
47.16
63.17
72.04
70.97
57.92
33.14
-0.47
-38.14
-75.12
-108.41
-137.52
-163.48
-187.54
-210.12
-231.03
-250.54
-270.24
-292.89
-320.91
-354.60
-391.07
-424.56
-448.44
-457.65
-450.61
-429.65
-400.21
-368.85
-341.25
-320.36
-305.59
-293.18
-277.76
-254.54
-221.22
-178.79
-130.62
-80.87
-32.53
13.50
58.17
103.30
150.63
201.56
257.04
317.59
382.48
448.85
511.54
564.04
600.65
618.82
620.07
609.33
592.69
574.82
557.54
540.09
520.58
497.75
471.80
444.23
416.71
390.11
364.10
337.47
308.83
277.28
242.80
206.01
167.84
129.40
92.04
57.55
28.25
6.57
-5.61
-7.79
-1.41
10.20
22.50
30.94
32.15
24.93
10.38
-8.56
-28.30
-45.84
-59.78
-70.52
-79.88
-90.25
-103.47
-120.30
-140.10
-161.10
-180.97
-197.33
-208.35
-212.99
-211.18
-203.68
-191.97
-177.95
-163.56
-150.25
-138.58
-128.03
-117.25
-104.89
-90.41
-74.84
-60.64
-50.90
-48.00
-52.45
-62.35
-73.83
-82.18
-83.42
-75.96
-60.86
-41.79
-24.04
-13.09
-13.00
-25.07
-47.37
-75.28
-103.07
-125.18
-137.69
-139.33
-131.66
-118.52
-104.60
-94.03
-89.13
-90.67
-97.24
-106.01
-114.14
-119.96
-123.58
-126.31
-129.59
-134.12
-141.10
-150.15
-159.59
-167.60
-173.56
-178.36
-183.34
-189.05
-194.70
-201.81
-210.22
-217.88
-222.21
-222.03
-218.12
-212.12
-205.48
-199.08
-198.91
-208.34
-226.39
-248.80
-271.32
-291.62
-309.07
-323.79
-336.06
-353.20
-378.60
-409.29
-437.88
-457.70
-465.89
-463.31
-452.73
-395.48
-281.47
-131.46
16.55
134.15
213.06
258.34
279.49
284.34
282.93
274.30
257.69
235.51
212.35
191.57
174.48
159.52
146.85
138.79
132.59
127.28
124.32
126.20
133.94
146.32
161.05
176.25
190.60
199.52
200.69
195.40
187.72
181.83
180.20
183.54
192.07
206.07
223.93
244.22
265.28
284.43
297.62
300.63
291.06
269.72
240.05
205.53
168.89
131.36
93.10
54.24
15.93
-19.58
-49.77
-73.29
-90.77
-104.13
-115.15
-123.99
-128.78
-126.48
-114.56
-92.58
-62.77
-29.36
2.86
30.00
49.99
62.64
69.18
71.65
72.35
73.35
76.13
81.20
88.06
95.40
101.74
105.88
107.28
105.99
102.32
96.57
88.93
79.54
68.65
56.48
42.97
27.63
9.68
-11.41
-35.29
-60.32
-83.77
-102.52
-113.97
-116.80
-111.16
-98.47
-80.87
-60.62
-39.55
-18.73
1.80
22.88
45.88
71.93
101.18
132.27
162.31
187.47
203.90
208.66
200.51
180.12
150.13
114.64
78.55
46.50
21.84
5.86
-2.33
-5.12
-5.29
-4.69
-3.59
-0.83
5.23
15.33
28.36
41.24
49.73
50.03
40.21
21.01
-4.23
-30.75
-53.82
-70.07
-78.19
-78.73
-73.43
-64.41
-53.55
-42.29
-31.56
-22.02
-14.00
-7.63
-2.72
1.17
4.63
8.08
11.67
15.26
18.49
21.13
23.29
25.47
28.40
32.63
38.13
44.11
49.04
51.22
49.36
43.11
33.26
21.44
9.53
-0.95
-9.39
-16.15
-22.29
-29.01
-36.91
-45.56
-53.48
-58.61
-59.02
-53.69
-42.89
-28.05
-11.26
5.28
19.75
30.94
38.18
41.33
40.76
37.28
32.03
26.22
20.88
16.60
13.52
11.50
10.24
9.49
9.04
8.73
8.34
7.58
6.13
3.74
0.35
-3.85
-8.45
-12.94
-16.91
-20.25
-23.17
-26.10
-29.56
-33.93
-39.28
-45.23
-50.91
-55.03
-56.10
-52.89
-44.87
-32.55
-17.37
-1.39
13.36
25.39
33.93
38.97
40.89
40.30
37.86
34.25
30.20
26.41
23.43
21.54
20.70
20.58
20.71
20.60
19.87
18.31
15.94
12.94
9.64
6.32
3.18
0.20
-2.85
-6.30
-10.58
-16.04
-22.85
-30.88
-39.56
-47.85
-54.32
-57.42
-55.89
-49.08
-37.22
-21.36
-3.03
16.11
34.60
51.29
65.24
75.70
82.17
84.53
83.33
79.87
76.01
73.64
73.99
77.10
81.84
86.40
89.25
89.80
88.74
87.87
89.19
94.13
103.00
115.04
128.65
141.62
151.31
154.95
150.73
138.65
121.11
102.63
88.40
82.28
84.85
93.05
101.46
105.43
102.99
95.23
84.99
74.95
66.10
57.40
46.55
31.44
12.09
-9.73
-31.82
-53.00
-73.61
-94.96
-118.46
-144.82
-173.43
-201.01
-222.70
-233.73
-230.75
-212.88
-181.63
-140.55
-94.51
-55.20
-33.48
-33.66
-50.48
-73.42
-94.12
-109.04
-118.55
-124.86
-130.04
-133.97
-134.93
-130.78
-120.23
-103.25
-80.54
-52.99
-21.56
12.33
47.14
80.28
102.37
106.43
90.47
59.08
21.46
-12.63
-36.64
-48.39
-49.71
-44.42
-35.58
-24.96
-13.22
-1.01
10.39
19.20
24.32
25.72
24.69
23.48
24.12
27.29
32.47
38.20
42.88
45.67
46.65
46.92
47.92
50.90
56.16
62.95
69.84
75.39
78.84
79.92
79.54
78.83
79.04
80.66
83.14
85.16
85.13
81.48
71.49
58.14
43.49
29.44
16.82
5.18
-6.61
-19.77
-35.09
-54.92
-79.36
-106.49
-132.82
-155.54
-173.56
-187.43
-198.76
-209.51
-224.72
-246.08
-271.14
-294.94
-313.68
-326.29
-333.83
-338.40
-342.25
-351.60
-368.50
-389.23
-406.43
-413.34
-405.96
-383.33
-347.41
-273.78
-163.51
-41.04
64.00
137.32
181.36
205.42
218.04
224.16
225.52
218.24
201.63
180.45
162.38
153.14
154.71
166.78
188.19
217.54
249.41
275.65
290.33
289.38
270.71
235.53
190.31
144.81
107.97
82.05
65.03
53.65
45.09
37.80
31.14
26.15
23.56
22.27
18.75
10.25
-2.99
-18.69
-34.62
-50.52
-66.48
-82.54
-97.77
-110.00
-115.28
-108.96
-88.47
-50.40
-3.83
39.63
71.74
90.00
98.02
100.53
101.95
105.93
115.51
132.62
159.84
198.55
247.55
298.88
342.10
367.44
369.08
347.40
307.95
260.41
214.16
174.97
143.96
119.27
98.33
79.57
62.82
48.17
35.99
26.08
17.44
8.68
-1.05
-12.01
-24.00
-36.82
-50.73
-66.05
-83.25
-102.84
-125.06
-149.40
-174.73
-199.83
-224.19
-248.62
-274.98
-305.03
-338.84
-373.48
-402.85
-419.92
-419.76
-401.83
-370.29
-332.32
-295.51
-265.96
-247.57
-241.97
-249.74
-270.57
-302.08
-338.59
-371.45
-391.69
-393.38
-375.91
-342.68
-300.17
-255.72
-215.00
-180.36
-150.97
-124.57
-99.00
-72.86
-43.24
-7.61
34.78
82.29
131.66
178.92
220.01
251.72
273.06
288.50
304.50
325.84
353.60
385.78
418.79
448.64
472.10
471.58
436.94
373.59
298.85
228.08
167.66
117.46
75.35
39.23
7.81
-17.02
-33.26
-41.43
-44.78
-47.37
-52.18
-60.22
-71.45
-84.94
-97.30
-104.50
-104.86
-99.06
-89.37
-78.22
-66.77
-55.55
-44.49
-31.79
-14.52
8.60
36.11
64.27
88.43
105.58
113.97
113.72
107.34
99.95
96.58
101.01
115.85
137.89
166.65
200.86
237.11
259.47
254.08
215.37
150.68
76.07
7.96
-42.52
-72.72
-86.66
-91.25
-91.04
-88.01
-82.51
-75.36
-68.28
-62.61
-59.46
-58.71
-59.22
-58.39
-54.13
-46.32
-37.78
-32.93
-35.39
-46.24
-62.73
-78.66
-85.93
-78.72
-55.42
-22.87
8.30
28.85
34.76
28.36
16.24
6.43
3.70
9.89
23.80
42.63
63.06
81.41
94.03
97.98
92.32
78.75
61.14
44.05
30.87
23.01
19.69
18.70
17.52
14.40
8.54
-0.05
-9.86
-19.77
-28.57
-35.33
-39.76
-42.35
-43.70
-44.10
-43.52
-42.10
-41.60
-43.62
-49.26
-59.03
-72.79
-89.44
-106.57
-120.78
-128.59
-128.82
-120.29
-102.41
-76.66
-47.45
-21.50
-6.09
-7.13
-27.88
-69.62
-127.32
-190.25
-245.31
-281.22
-291.43
-275.47
-238.60
-178.94
-108.86
-47.69
-9.01
6.43
7.14
2.87
-0.21
2.14
12.77
30.99
55.83
85.38
115.98
142.97
163.07
175.79
184.48
193.56
205.77
222.01
240.85
258.34
269.49
270.47
259.54
238.80
211.89
182.89
155.13
131.05
111.63
97.63
90.50
91.07
100.68
110.07
111.45
101.43
82.09
56.86
27.77
-0.62
-31.47
-65.77
-101.85
-134.94
-160.71
-174.96
-176.64
-168.54
-153.43
-137.85
-127.17
-125.52
-132.11
-147.46
-172.97
-210.67
-260.37
-318.01
-376.79
-427.57
-462.67
-477.40
-471.44
-447.25
-408.80
-359.87
-303.79
-243.84
-182.85
-123.80
-68.89
-19.90
22.72
59.22
90.55
118.08
143.83
169.16
193.74
215.88
233.51
246.02
254.66
262.23
271.53
285.51
303.68
321.78
333.98
336.07
327.69
311.93
293.61
277.21
268.18
268.06
273.77
279.72
281.25
276.98
268.54
259.36
253.17
256.50
272.03
296.60
322.52
341.30
346.66
335.61
308.59
245.40
144.76
25.17
-85.78
-169.72
-223.69
-253.75
-267.38
-270.08
-265.42
-252.26
-231.38
-206.83
-184.21
-167.16
-155.88
-148.02
-140.58
-131.80
-118.40
-99.91
-79.32
-61.48
-49.98
-45.70
-47.12
-51.48
-56.55
-58.81
-56.72
-51.49
-46.17
-43.58
-44.96
-49.75
-56.18
-62.78
-67.17
-68.24
-66.88
-65.84
-68.92
-80.37
-104.63
-139.27
-181.73
-225.87
-262.72
-282.55
-277.90
-246.04
-190.36
-119.65
-45.42
20.49
69.85
99.53
111.08
109.22
99.83
88.17
77.71
70.03
64.31
58.99
52.89
46.26
41.03
40.52
48.51
67.82
99.33
140.71
186.79
230.55
264.48
282.24
280.26
258.74
221.77
176.13
129.06
85.76
49.20
19.77
-3.82
-23.53
-40.99
-56.87
-71.10
-83.50
-94.88
-105.02
-112.89
-117.51
-119.09
-119.66
-121.78
-127.50
-137.56
-153.10
-172.97
-195.02
-217.66
-240.89
-266.34
-294.60
-324.04
-350.63
-371.34
-381.61
-377.29
-356.14
-319.11
-270.48
-215.09
-157.59
-88.59
-13.55
53.21
98.39
117.13
118.74
113.55
111.07
118.18
139.14
172.23
213.04
254.22
287.17
303.36
297.11
269.81
230.23
191.43
164.06
154.64
157.46
163.50
161.86
146.22
118.72
86.64
56.99
32.14
11.42
-7.83
-26.16
-42.62
-55.33
-62.64
-63.84
-59.67
-52.11
-42.90
-33.32
-20.84
-1.57
27.05
61.17
92.27
109.60
105.04
81.00
41.39
-2.34
-35.69
-46.96
-31.91
6.00
58.07
114.32
166.11
200.84
210.14
190.17
142.06
71.32
-12.36
-96.96
-168.01
-209.23
-214.70
-190.95
-152.03
-110.45
-73.30
-42.46
-17.24
3.54
20.41
32.28
39.30
43.02
45.85
49.65
55.44
63.37
72.65
81.97
89.16
93.22
94.54
94.51
94.45
95.24
97.22
99.73
102.06
103.09
102.36
100.34
98.06
96.61
96.71
98.70
101.71
104.85
106.94
106.99
104.37
98.68
89.26
74.42
58.20
41.48
24.54
7.03
-11.57
-31.58
-52.80
-74.41
-95.21
-114.15
-131.13
-146.05
-159.36
-171.95
-184.90
-199.04
-214.82
-232.41
-252.17
-274.05
-296.58
-317.78
-336.03
-350.78
-362.62
-372.75
-382.04
-390.89
-397.17
-396.32
-384.00
-358.42
-321.16
-276.29
-228.56
-181.73
-139.00
-100.54
-64.30
-28.30
7.92
43.41
76.92
107.76
144.94
186.71
224.52
250.47
262.26
261.81
252.27
236.73
217.93
198.15
177.60
157.28
138.77
123.01
109.79
98.19
87.27
76.54
65.91
54.34
41.85
29.33
17.43
6.23
-4.62
-15.51
-26.52
-37.32
-48.14
-58.55
-67.31
-73.37
-75.80
-74.25
-68.88
-60.08
-48.63
-36.08
-24.01
-13.97
-7.65
-5.99
-9.77
-19.27
-34.20
-53.77
-76.95
-102.23
-127.83
-151.95
-172.06
-186.00
-192.11
-189.56
-178.40
-159.52
-133.97
-102.14
-69.43
-38.99
-13.03
7.25
21.44
29.66
32.48
30.87
26.16
19.97
15.07
14.10
19.20
31.58
51.31
77.10
106.20
134.33
156.01
166.37
162.07
142.70
111.02
72.91
35.51
4.73
-16.18
-26.88
-28.40
-22.05
-8.73
10.56
34.54
61.38
88.51
113.42
134.60
152.16
167.38
181.49
194.48
206.25
217.21
227.74
237.63
245.88
250.61
250.39
243.73
227.94
202.99
172.08
138.99
106.55
76.43
49.30
27.72
13.80
5.41
2.41
7.21
20.10
37.79
56.16
72.40
89.48
111.22
134.22
156.65
179.92
202.59
219.35
226.61
224.58
220.57
221.28
222.68
222.96
226.55
235.40
245.17
251.37
219.16
130.57
35.25
-44.65
-114.29
-165.90
-191.84
-192.65
-171.17
-131.71
-77.33
-14.52
40.22
59.33
32.84
-8.46
-49.91
-94.07
-138.45
-176.74
-204.46
-225.99
-243.81
-253.60
-252.24
-243.56
-230.57
-213.86
-192.08
-164.67
-135.99
-108.91
-81.66
-53.53
-28.97
-11.09
0.23
7.14
11.69
12.62
7.88
-2.66
-18.82
-41.50
-68.02
-92.28
-108.25
-111.58
-102.89
-88.94
-78.63
-77.68
-86.20
-97.95
-104.81
-101.78
-89.09
-71.16
-53.60
-39.90
-30.62
-25.69
-23.91
-23.27
-21.53
-15.44
-1.69
22.07
55.93
96.41
135.32
163.10
171.90
158.39
125.01
78.52
27.97
-16.89
-46.15
-57.91
-56.02
-44.65
-25.31
2.77
39.27
79.78
115.21
137.91
142.72
130.92
110.41
91.38
81.35
81.60
87.39
91.50
88.41
75.99
55.53
34.06
17.81
10.79
13.65
23.82
36.97
48.70
55.42
54.25
46.02
34.02
21.82
11.30
1.39
-9.50
-21.91
-34.96
-49.67
-64.36
-76.39
-84.76
-91.02
-99.84
-114.33
-134.68
-158.86
-188.96
-223.36
-257.55
-287.89
-313.46
-338.84
-368.44
-405.00
-449.22
-505.53
-569.42
-627.83
-665.95
-673.33
-651.05
-606.04
-548.45
-446.41
-305.73
-159.84
-41.03
31.44
76.36
105.08
122.88
133.47
139.54
138.15
134.24
137.58
155.73
190.24
233.65
277.98
317.38
348.39
364.99
370.37
372.42
377.42
387.23
398.25
408.41
417.41
424.56
424.01
415.35
400.81
383.56
367.64
357.18
358.29
375.19
406.71
416.37
379.52
297.08
193.92
97.28
20.64
-34.94
-75.12
-106.91
-136.11
-160.52
-176.23
-182.25
-182.16
-183.44
-192.14
-210.77
-238.17
-270.60
-298.64
-312.37
-304.73
-273.71
-222.13
-155.30
-79.34
1.09
77.95
141.21
179.41
186.72
166.59
128.40
82.22
35.35
-8.21
-47.02
-78.88
-101.00
-112.87
-113.70
-104.49
-87.72
-66.24
-42.60
-19.20
2.62
22.16
38.85
51.92
59.32
59.30
52.11
39.93
25.65
12.18
1.94
-3.18
-1.80
6.15
19.42
35.51
50.86
61.63
65.20
61.44
52.59
42.35
33.79
28.17
24.70
21.12
14.68
3.67
-11.67
-28.95
-44.48
-54.73
-58.06
-55.57
-51.04
-49.70
-56.42
-74.22
-103.50
-141.73
-183.55
-221.38
-246.75
-252.57
-235.63
-198.16
-147.63
-94.41
-48.24
-15.28
3.02
8.89
6.03
-2.24
-13.43
-25.46
-35.99
-42.34
-42.06
-33.74
-17.32
6.24
35.08
67.01
99.48
129.56
154.20
170.28
175.18
167.54
148.16
120.72
91.63
69.03
60.25
68.90
92.59
122.68
146.32
150.44
126.25
72.59
-3.09
-86.69
-161.55
-213.25
-233.31
-220.71
-181.18
-124.76
-62.58
-4.40
42.88
75.80
94.00
99.64
96.21
87.02
73.87
56.22
31.71
-1.96
-44.73
-92.79
-139.08
-175.42
-195.37
-196.24
-179.45
-149.37
-111.60
-71.47
-33.40
-0.71
24.46
41.41
51.12
56.02
59.30
63.80
71.11
81.33
93.64
106.97
120.52
133.59
145.06
153.10
155.32
149.38
133.75
108.30
74.58
35.78
-3.43
-37.49
-60.70
-68.67
-60.10
-38.36
-11.78
8.43
12.14
-5.02
-39.00
-78.34
-108.84
-119.59
-107.47
-77.68
-40.35
-5.48
21.09
38.61
49.50
56.43
60.31
60.18
54.45
42.19
23.65
-0.18
-28.12
-59.00
-91.27
-122.35
-148.57
-165.72
-170.39
-160.92
-137.86
-103.89
-63.35
-21.39
16.81
47.00
66.62
74.97
73.45
65.34
54.85
45.80
40.73
40.53
45.00
53.58
65.39
79.42
94.48
109.01
120.95
128.10
128.65
121.98
108.76
90.22
67.83
43.12
17.65
-7.09
-29.84
-49.79
-66.79
-78.67
-83.94
-83.35
-80.04
-77.03
-75.06
-72.82
-68.56
-61.41
-51.80
-41.53
-32.48
-25.68
-20.79
-16.74
-12.60
-8.02
-3.33
0.81
3.42
3.89
2.41
0.04
-1.86
-2.26
-0.93
1.55
4.11
5.43
4.79
2.47
-0.24
-1.71
-0.85
2.61
7.91
13.69
18.29
20.25
18.44
12.04
0.90
-13.73
-28.74
-39.59
-41.34
-31.98
-13.36
9.19
28.95
40.80
43.13
38.09
29.84
22.31
17.39
14.96
13.76
12.67
11.39
10.31
9.80
9.73
9.55
8.44
5.87
2.14
-1.67
-4.05
-4.17
-2.55
-1.34
-3.27
-10.15
-21.42
-33.85
-42.82
-44.45
-37.55
-24.07
-8.11
6.34
17.26
24.90
30.80
36.19
40.92
43.30
42.23
37.57
30.62
23.55
18.34
15.52
14.03
11.83
6.85
-1.77
-13.29
-25.79
-36.42
-42.50
-42.39
-36.20
-25.51
-12.81
-0.53
9.63
16.71
20.28
20.25
16.89
11.07
4.65
0.03
-0.73
2.92
9.56
16.37
20.65
21.09
18.23
13.96
10.30
8.39
8.23
9.14
10.32
11.55
12.76
13.63
13.38
10.68
4.42
-5.45
-17.66
-30.02
-39.94
-45.55
-46.41
-43.35
-38.75
-35.47
-35.91
-40.07
-47.79
-57.54
-66.79
-72.94
-73.83
-69.46
-61.36
-52.02
-43.76
-38.25
-35.34
-33.16
-28.59
-17.78
1.12
28.16
60.88
94.83
124.77
146.50
157.92
155.57
142.99
124.47
103.44
82.04
61.54
43.03
27.97
17.91
13.62
14.78
18.45
20.35
16.70
5.73
-11.53
-31.82
-51.20
-66.02
-73.34
-72.27
-63.30
-47.91
-28.55
-8.48
8.73
20.30
25.31
25.31
23.12
21.84
23.57
28.72
36.16
44.12
51.20
57.02
61.94
66.19
69.45
70.84
69.30
63.59
52.89
37.19
18.05
-2.02
-20.62
-36.18
-48.22
-57.11
-64.20
-71.06
-78.78
-87.42
-96.16
-103.88
-109.40
-111.52
-108.82
-100.68
-87.31
-70.36
-52.89
-39.21
-34.10
-41.28
-61.75
-88.03
-109.53
-116.69
-106.92
-84.89
-58.00
-32.10
-9.88
8.61
24.51
37.89
47.83
53.01
53.16
49.57
44.46
40.03
37.84
38.39
40.68
42.93
43.44
41.50
37.64
33.05
29.00
26.44
25.68
26.18
27.00
27.27
26.68
25.59
24.58
24.14
24.48
25.38
26.18
25.90
23.77
19.17
11.83
2.01
-9.58
-21.84
-33.68
-44.20
-52.75
-58.40
-59.90
-55.91
-45.74
-30.26
-11.95
5.75
20.13
29.38
34.52
37.98
41.86
46.61
50.81
52.42
50.06
44.21
36.77
30.31
26.64
25.95
27.34
29.34
31.38
33.48
35.35
35.39
30.55
17.49
-5.29
-35.58
-68.34
-96.81
-116.04
-124.79
-125.23
-120.65
-113.20
-102.90
-87.73
-68.72
-48.30
-30.49
-18.99
-15.10
-16.81
-19.50
-17.85
-7.53
12.38
40.07
70.97
98.96
118.65
126.90
123.74
110.81
92.98
73.58
54.29
35.58
17.70
1.83
-9.90
-15.17
-12.13
-0.45
17.20
35.88
49.18
51.12
39.67
17.32
-9.45
-32.69
-46.25
-48.49
-41.77
-30.80
-20.09
-12.21
-8.19
-8.17
-12.32
-20.39
-30.85
-40.00
-42.54
-33.74
-11.82
20.14
54.53
81.56
92.93
84.81
59.54
24.47
-11.26
-38.74
-54.02
-57.83
-53.92
-46.45
-38.18
-30.05
-21.99
-14.09
-7.37
-3.62
-4.18
-9.23
-17.93
-28.92
-40.58
-50.74
-56.68
-55.43
-44.86
-25.00
1.27
28.99
53.01
69.94
78.99
81.22
78.04
70.17
57.70
41.12
22.29
4.46
-9.14
-17.13
-20.88
-23.88
-29.32
-38.21
-48.64
-56.57
-57.82
-50.31
-34.91
-14.61
5.17
20.29
28.96
31.56
29.89
26.00
21.47
17.12
13.24
9.84
7.28
6.00
6.32
8.29
11.52
15.16
18.12
19.49
18.82
16.41
13.13
9.87
7.34
5.77
5.18
5.58
6.98
9.11
11.25
12.25
10.65
5.65
-2.31
-11.64
-20.09
-25.84
-28.20
-27.74
-25.66
-23.22
-21.06
-19.24
-17.61
-16.15
-15.05
-14.54
-14.65
-15.16
-15.78
-16.29
-16.55
-16.52
-16.15
-15.42
-14.30
-12.82
-10.95
-8.55
-5.48
-1.87
1.52
3.36
2.11
-3.28
-12.61
-24.38
-36.19
-45.68
-51.44
-53.51
-53.04
-51.65
-50.72
-51.10
-53.00
-56.65
-62.10
-69.11
-77.16
-85.57
-93.86
-101.91
-109.95
-118.20
-126.50
-134.00
-139.55
-142.26
-142.01
-139.33
-134.89
-128.88
-120.60
-108.98
-93.19
-73.46
-51.08
-27.69
-4.16
20.11
46.94
78.12
113.92
152.36
189.58
221.20
244.17
257.92
264.20
265.88
265.27
263.32
259.70
253.98
246.56
238.94
233.04
230.05
229.87
231.15
232.17
231.40
227.67
219.54
204.87
181.00
146.01
100.34
47.82
-4.90
-50.43
-83.27
-101.59
-107.35
-104.78
-98.17
-90.12
-81.17
-70.64
-57.91
-43.42
-28.71
-15.85
-6.47
-1.23
0.21
-1.14
-4.26
-8.48
-13.51
-19.32
-25.74
-32.24
-37.92
-41.77
-43.18
-42.34
-40.47
-39.45
-41.26
-47.28
-57.75
-71.72
-87.41
-102.98
-117.17
-129.74
-141.23
-152.25
-162.74
-171.48
-176.28
-174.78
-165.44
-148.28
-124.93
-98.12
-70.80
-45.41
-23.47
-5.72
7.54
16.33
20.96
22.12
21.06
19.32
18.43
19.32
22.04
25.80
29.40
31.81
32.72
32.64
32.51
33.08
34.44
35.82
35.89
33.37
27.50
18.30
6.38
-7.27
-21.52
-35.02
-46.07
-52.76
-53.28
-46.60
-33.04
-14.44
6.20
25.54
40.95
50.99
55.58
55.58
52.20
46.45
39.13
30.95
22.72
15.45
10.02
6.83
5.53
5.08
4.14
1.69
-2.60
-8.37
-14.78
-20.98
-26.27
-30.29
-32.96
-34.58
-35.87
-37.91
-41.94
-48.79
-58.37
-69.36
-79.29
-85.24
-84.69
-76.35
-60.56
-39.28
-15.66
6.54
23.58
32.43
31.26
19.96
0.31
-24.40
-50.05
-72.87
-90.46
-102.28
-109.67
-115.10
-121.00
-128.57
-137.03
-143.92
-145.96
-140.26
-125.28
-101.49
-71.46
-39.22
-9.34
14.34
29.29
34.78
31.97
23.99
14.91
8.67
8.12
14.26
26.65
43.44
61.98
79.79
96.02
110.45
122.83
132.80
139.59
143.72
145.71
145.67
143.42
140.68
138.62
137.52
137.22
137.15
139.48
146.05
156.90
170.41
186.99
205.87
224.74
240.60
249.74
253.19
252.55
248.82
243.07
240.90
246.61
261.21
282.25
303.83
324.85
344.65
362.80
352.46
301.64
218.11
124.55
56.51
10.46
-21.32
-46.17
-73.04
-104.80
-136.58
-164.82
-188.60
-209.51
-231.36
-252.90
-274.53
-297.05
-320.06
-337.28
-345.63
-345.59
-341.16
-338.25
-338.11
-342.46
-350.87
-359.99
-361.21
-351.33
-332.53
-311.56
-296.08
-273.15
-235.16
-182.28
-136.29
-96.66
-60.16
-20.29
22.44
65.72
108.27
146.22
175.81
194.50
204.29
206.04
201.68
193.73
185.22
177.95
169.19
155.28
134.29
109.59
84.92
64.32
49.99
41.97
37.70
32.07
20.93
2.85
-19.73
-44.49
-69.24
-92.15
-110.63
-121.38
-121.50
-108.82
-83.08
-46.15
-3.26
38.91
74.06
98.34
110.80
112.63
106.44
95.24
81.90
68.11
54.30
39.81
23.46
4.58
-16.10
-36.08
-51.84
-60.24
-60.19
-53.44
-43.98
-36.50
-34.53
-39.35
-50.02
-64.40
-80.21
-95.72
-109.58
-120.59
-127.57
-129.68
-126.61
-118.60
-106.29
-90.30
-70.85
-47.89
-21.49
7.38
36.59
63.17
84.36
98.63
105.77
106.66
102.45
93.93
81.41
65.27
46.77
28.62
14.51
7.23
7.70
14.56
24.99
35.67
43.98
48.69
50.03
49.03
45.55
38.74
28.31
15.85
4.80
-0.66
2.94
17.08
40.45
67.26
90.11
103.12
104.30
95.24
79.46
60.80
42.53
26.55
10.52
-10.19
-40.01
-80.79
-131.83
-190.95
-255.00
-319.92
-366.01
-374.02
-336.19
-262.43
-171.60
-80.15
1.47
67.45
115.18
144.78
156.30
151.01
132.30
106.03
78.79
55.69
39.72
31.94
31.89
36.14
40.24
40.87
37.26
30.78
23.66
18.06
15.67
17.26
21.37
25.32
26.65
24.39
19.12
12.43
6.32
2.50
1.98
4.17
7.36
9.65
9.67
6.84
0.93
-8.12
-19.82
-32.45
-43.02
-47.82
-43.78
-29.61
-8.47
14.03
31.95
41.39
41.99
36.45
28.66
21.72
16.93
13.91
11.98
10.79
10.47
11.19
12.68
14.17
14.88
14.49
13.23
12.01
11.65
12.37
13.71
14.80
14.70
13.00
9.91
6.17
3.12
2.39
5.38
12.52
22.51
32.05
36.68
32.59
18.68
-2.38
-24.53
-41.32
-48.64
-46.29
-37.53
-26.91
-17.92
-11.73
-7.57
-4.04
-0.58
2.32
3.70
3.10
1.03
-1.24
-2.35
-1.44
1.31
4.86
7.97
9.65
9.67
8.51
7.17
6.58
7.31
9.31
12.05
14.84
17.09
18.56
19.36
19.76
19.98
20.11
20.03
19.50
18.25
16.12
13.02
8.97
4.04
-1.56
-7.44
-13.09
-17.86
-21.24
-23.03
-23.52
-23.43
-23.61
-24.76
-27.00
-29.82
-32.27
-33.48
-33.04
-31.38
-29.57
-28.80
-29.97
-33.33
-38.54
-44.86
-51.21
-56.23
-58.43
-56.34
-49.09
-37.04
-21.95
-6.36
7.36
18.09
26.28
33.28
40.46
48.15
55.20
59.63
59.79
55.55
48.86
43.13
41.66
46.49
57.30
71.18
83.87
91.55
92.27
86.65
77.03
65.73
54.59
44.15
33.86
23.16
12.53
3.00
-4.43
-8.58
-10.93
-13.82
-19.79
-30.97
-48.14
-70.08
-94.38
-117.58
-136.96
-151.42
-159.90
-162.19
-159.94
-155.94
-152.37
-150.14
-147.23
-140.40
-126.67
-102.51
-65.87
-18.21
36.04
91.85
144.38
191.45
231.94
255.49
254.63
233.37
203.76
176.07
159.56
150.93
147.32
146.20
144.90
139.51
128.34
110.12
83.46
48.11
4.50
-44.01
-93.29
-139.94
-179.87
-209.49
-227.04
-233.66
-232.14
-226.17
-216.58
-202.47
-182.87
-156.53
-123.36
-85.29
-47.85
-18.50
-4.49
-8.07
-22.22
-39.31
-51.69
-59.65
-58.98
-47.43
-22.04
13.03
50.20
79.85
92.32
82.77
53.79
14.92
-16.06
-24.92
-13.06
7.26
23.39
28.76
24.31
15.05
8.02
6.20
7.61
7.62
4.21
-0.72
-3.49
-0.79
8.44
25.20
47.62
71.34
91.62
106.58
117.72
128.36
142.46
149.63
145.11
128.44
102.79
72.33
41.24
13.18
-9.22
-24.72
-34.05
-37.26
-35.89
-32.51
-29.66
-28.36
-27.92
-26.88
-24.07
-19.86
-14.31
-8.74
-4.86
-4.12
-6.48
-10.54
-14.15
-14.84
-11.57
-3.06
10.63
27.67
44.40
56.21
59.04
49.60
30.20
6.10
-16.06
-31.45
-38.72
-39.70
-37.47
-34.28
-30.63
-25.67
-19.04
-11.50
-5.01
-1.77
-2.81
-7.42
-13.47
-18.21
-18.98
-14.00
-3.11
12.22
28.89
42.80
50.18
49.08
40.83
29.14
19.00
14.23
15.41
19.62
22.00
18.69
9.07
-3.73
-14.79
-20.00
-18.48
-12.69
-6.94
-4.69
-6.66
-10.62
-12.96
-11.40
-5.56
2.85
11.81
20.33
28.15
35.44
42.07
47.90
52.83
58.40
67.13
81.93
104.21
132.08
160.15
181.44
190.36
184.49
166.35
141.14
115.44
94.77
81.59
74.78
70.60
70.13
72.23
75.85
77.63
76.03
71.92
66.79
61.31
55.64
50.08
44.35
38.37
26.88
8.12
-14.66
-37.09
-57.51
-76.58
-95.61
-116.03
-138.35
-170.22
-212.82
-259.06
-300.45
-333.56
-359.59
-381.40
-402.18
-424.64
-461.31
-515.95
-579.73
-638.65
-681.70
-701.83
-695.15
-661.76
-540.94
-336.78
-112.92
67.10
183.95
250.01
284.73
302.71
311.58
314.47
302.49
274.98
242.26
216.43
202.40
198.18
198.99
200.37
199.75
188.41
165.25
137.88
115.34
101.40
94.65
91.74
89.59
86.42
76.76
59.88
40.57
24.45
14.08
8.62
6.16
5.02
4.44
1.98
-2.39
-6.16
-6.64
-2.56
5.27
15.17
25.41
34.57
40.49
42.10
39.70
34.00
26.29
17.55
8.91
1.73
-2.26
-1.99
3.13
13.04
24.16
35.84
47.13
57.04
67.72
78.23
87.27
93.97
97.23
95.45
88.06
75.10
57.50
30.80
-0.30
-30.89
-56.84
-74.46
-86.16
-93.79
-97.96
-98.23
-93.44
-81.74
-62.55
-34.92
0.44
41.68
83.00
120.33
150.81
172.75
186.11
191.55
192.55
191.95
190.55
187.31
180.10
166.06
142.85
110.57
61.96
1.72
-57.30
-103.10
-131.32
-145.42
-150.81
-150.16
-144.77
-136.73
-126.80
-118.44
-113.49
-110.72
-106.34
-98.38
-90.08
-83.00
-75.95
-64.39
-44.97
-17.10
16.24
49.26
75.69
91.76
92.22
79.01
61.67
49.21
43.88
41.65
37.15
27.61
13.92
-0.58
-11.85
-17.16
-16.71
-12.88
-8.63
-6.31
-7.09
-11.06
-17.36
-24.07
-29.28
-32.17
-32.57
-30.20
-24.73
-16.11
-5.78
2.75
4.74
-4.27
-26.31
-59.10
-96.13
-129.14
-151.57
-161.08
-159.62
-151.35
-139.97
-127.22
-112.89
-96.19
-77.15
-57.12
-37.81
-19.88
-3.38
12.59
29.10
46.51
64.08
80.34
93.82
103.46
108.68
109.17
105.00
96.61
84.87
70.89
55.85
40.62
25.61
11.01
-2.94
-15.55
-25.90
-33.37
-38.04
-40.69
-42.52
-44.66
-47.79
-52.09
-57.11
-61.87
-64.96
-64.75
-59.87
-49.88
-35.75
-19.86
-5.31
5.28
10.74
11.71
10.16
8.41
8.05
9.47
12.00
14.52
16.19
16.82
16.78
16.62
16.65
16.75
16.46
15.40
13.47
11.01
8.59
6.72
5.65
5.22
4.97
4.36
3.01
0.64
-2.92
-7.76
-13.72
-20.23
-26.12
-29.83
-29.87
-25.29
-16.20
-3.65
10.75
25.36
38.93
50.71
60.19
66.95
70.65
71.12
68.70
64.31
59.33
55.15
52.69
52.11
52.63
52.88
51.46
47.49
40.89
32.33
22.96
13.83
5.53
-1.94
-9.02
-16.24
-23.95
-32.10
-40.35
-48.09
-54.49
-58.60
-59.46
-56.32
-48.95
-37.84
-24.24
-9.80
3.82
15.41
24.41
30.79
34.81
36.71
36.71
35.00
31.96
28.21
24.51
21.60
19.89
19.36
19.65
20.24
20.74
20.99
21.12
21.31
21.66
22.07
22.29
22.00
20.92
18.81
15.46
10.81
5.10
-0.86
-5.74
-7.92
-6.19
-0.27
8.93
19.52
29.39
36.95
41.65
43.87
44.42
44.00
42.89
41.08
38.45
35.06
31.14
26.88
22.29
17.12
11.04
3.94
-3.83
-11.53
-18.23
-23.16
-26.02
-27.13
-27.29
-27.51
-28.64
-31.12
-34.91
-39.56
-44.36
-48.54
-51.33
-52.05
-50.15
-45.31
-37.57
-27.48
-15.98
-4.28
6.42
15.22
21.61
25.38
26.50
25.01
20.96
14.64
6.70
-1.89
-9.90
-16.25
-20.27
-21.94
-21.79
-20.60
-19.03
-17.36
-15.49
-13.09
-9.94
-6.18
-2.27
1.09
3.24
3.68
2.27
-0.85
-5.15
-9.79
-13.60
-15.33
-13.93
-8.85
-0.20
11.27
24.39
37.84
50.34
60.71
67.99
71.42
70.63
65.75
57.46
46.94
35.60
24.80
15.48
7.99
2.13
-2.68
-6.98
-10.95
-14.21
-16.00
-15.54
-12.56
-7.54
-1.71
3.29
5.87
4.92
0.07
-8.20
-18.50
-28.80
-36.80
-40.60
-39.25
-33.04
-23.35
-12.06
-0.93
8.91
16.96
23.04
26.97
28.41
27.12
23.20
17.33
10.64
4.30
-0.85
-4.51
-6.88
-8.40
-9.48
-10.29
-10.79
-10.77
-10.07
-8.62
-6.48
-3.87
-1.17
1.23
2.93
3.61
3.11
1.49
-1.00
-3.82
-6.33
-7.78
-7.60
-5.49
-1.63
3.40
8.73
13.47
16.94
18.82
19.17
18.21
16.32
13.80
10.93
7.93
4.92
1.91
-1.24
-4.74
-8.74
-13.26
-18.08
-22.82
-27.05
-30.44
-32.76
-33.92
-33.91
-32.83
-30.90
-28.53
-26.26
-24.70
-24.27
-25.08
-26.65
-28.13
-28.37
-26.37
-21.56
-14.07
-4.62
5.65
15.60
24.30
31.21
36.11
38.96
39.77
38.63
35.82
31.84
27.43
23.33
20.09
17.88
16.49
15.42
14.14
12.22
9.49
6.04
2.16
-1.77
-5.43
-8.60
-11.30
-13.74
-16.30
-19.41
-23.29
-27.84
-32.49
-36.32
-38.29
-37.64
-34.15
-28.23
-20.82
-13.05
-5.90
-0.04
4.18
6.69
7.52
6.83
4.92
2.26
-0.57
-3.11
-5.07
-6.44
-7.39
-8.09
-8.55
-8.64
-8.13
-6.85
-4.80
-2.20
0.59
3.15
5.08
6.12
6.18
5.30
3.67
1.58
-0.58
-2.17
-2.49
-0.89
3.02
9.17
17.06
25.83
34.52
42.30
48.63
53.18
55.89
56.78
55.99
53.77
50.50
46.66
42.76
39.24
36.35
34.11
32.34
30.74
29.07
27.26
25.45
23.90
22.87
22.48
22.63
22.96
23.01
22.36
20.81
18.47
15.90
14.00
13.80
16.11
21.20
28.64
37.34
45.94
53.26
58.68
62.29
64.61
66.16
67.10
67.16
65.89
62.98
58.63
53.45
48.13
43.10
38.22
32.92
26.46
18.34
8.42
-2.99
-15.37
-28.15
-40.82
-52.94
-64.14
-74.12
-82.75
-90.11
-96.41
-101.87
-106.44
-109.71
-110.96
-109.36
-104.32
-95.77
-84.20
-70.50
-55.76
-40.95
-26.82
-14.04
-3.18
5.12
10.34
12.33
11.56
9.19
6.88
6.34
8.68
14.17
22.04
30.85
38.98
45.12
48.60
49.36
47.74
44.18
39.06
32.57
24.88
16.17
6.73
-3.05
-12.68
-21.63
-29.29
-35.01
-38.23
-38.61
-36.16
-31.32
-24.87
-17.72
-10.82
-4.87
-0.35
2.51
3.72
3.49
2.13
0.06
-2.30
-4.55
-6.37
-7.58
-8.20
-8.45
-8.64
-9.12
-10.12
-11.66
-13.55
-15.51
-17.27
-18.68
-19.73
-20.58
-21.45
-22.58
-24.25
-26.67
-29.85
-33.54
-37.16
-39.83
-40.66
-39.01
-34.77
-28.41
-20.82
-13.05
-5.95
-0.09
4.31
7.21
8.66
8.74
7.53
5.29
2.45
-0.45
-2.86
-4.43
-5.08
-5.01
-4.59
-4.17
-3.99
-4.07
-4.35
-4.75
-5.32
-6.29
-7.91
-10.42
-13.87
-18.15
-23.05
-28.37
-33.85
-39.09
-43.49
-46.20
-46.39
-43.55
-37.80
-29.89
-21.04
-12.55
-5.37
0.01
3.58
5.57
6.22
5.70
4.08
1.49
-1.80
-5.37
-8.76
-11.54
-13.49
-14.56
-14.87
-14.55
-13.74
-12.48
-10.79
-8.76
-6.55
-4.41
-2.62
-1.41
-0.95
-1.36
-2.71
-5.01
-8.16
-11.79
-15.22
-17.52
-17.74
-15.20
-9.75
-1.88
7.41
16.92
25.56
32.59
37.70
40.88
42.36
42.43
41.39
39.60
37.41
35.18
33.23
31.79
30.97
30.68
30.71
30.74
30.44
29.61
28.22
26.44
24.50
22.61
20.78
18.92
16.77
14.10
10.75
6.60
1.60
-4.20
-10.53
-16.78
-21.99
-25.05
-25.09
-21.82
-15.74
-7.99
0.10
7.46
13.65
18.79
23.32
27.45
31.04
33.54
34.37
33.23
30.31
26.32
22.19
18.72
16.31
14.79
13.51
11.68
8.56
3.85
-2.24
-9.08
-15.74
-21.34
-25.35
-27.73
-29.00
-30.01
-31.74
-34.92
-39.78
-45.96
-52.56
-58.50
-62.78
-64.82
-64.45
-61.84
-57.34
-51.44
-44.70
-37.82
-31.54
-26.55
-23.27
-21.79
-21.82
-22.88
-24.43
-25.98
-27.14
-27.61
-27.16
-25.79
-23.70
-21.27
-18.96
-17.11
-15.90
-15.33
-15.32
-15.82
-16.77
-18.13
-19.74
-21.45
-23.11
-24.75
-26.59
-28.83
-31.43
-33.93
-35.32
-34.38
-30.13
-22.23
-11.13
1.94
15.46
27.99
38.51
46.50
51.85
54.67
55.19
53.69
50.56
46.29
41.46
36.56
31.94
27.76
23.98
20.46
17.13
13.99
11.12
8.60
6.39
4.35
2.26
-0.03
-2.45
-4.76
-6.69
-8.05
-8.94
-9.65
-10.64
-12.32
-14.85
-18.03
-21.29
-23.85
-24.88
-23.78
-20.34
-14.84
-7.88
-0.21
7.52
14.86
21.55
27.43
32.37
36.25
39.05
40.90
42.16
43.22
44.39
45.78
47.28
48.58
49.37
49.42
48.60
46.93
44.46
41.31
37.68
33.86
30.17
26.94
24.36
22.41
20.86
19.35
17.61
15.60
13.59
12.10
11.72
12.89
15.74
20.04
25.30
30.83
35.88
39.71
41.72
41.56
39.23
35.10
29.78
23.83
17.61
11.18
4.50
-2.48
-9.58
-16.56
-23.22
-29.63
-36.17
-43.28
-51.15
-59.47
-67.46
-74.15
-78.78
-81.06
-81.20
-79.75
-77.33
-74.55
-72.11
-70.75
-71.09
-73.27
-76.59
-79.52
-80.20
-77.20
-70.29
-60.48
-49.55
-39.16
-30.13
-22.30
-15.00
-7.74
-0.56
5.99
11.41
15.66
19.31
23.18
27.85
33.33
38.98
43.94
47.48
49.35
49.72
48.98
47.54
45.76
44.03
42.68
41.83
41.12
39.73
36.73
31.67
25.12
18.66
14.39
14.01
18.04
25.59
34.86
43.89
51.30
56.64
60.09
62.07
62.82
62.31
60.37
56.94
52.31
46.99
41.58
36.46
31.67
26.94
22.02
16.89
11.90
7.61
4.39
2.10
-0.04
-3.17
-8.31
-15.89
-25.57
-36.41
-47.27
-57.24
-65.79
-72.79
-78.22
-82.05
-84.08
-83.93
-81.15
-75.39
-66.42
-54.37
-39.78
-23.70
-7.51
7.34
19.72
29.05
35.34
39.04
40.73
40.81
39.41
36.48
31.93
25.89
18.73
10.99
3.23
-4.05
-10.53
-16.03
-20.40
-23.56
-25.47
-26.22
-26.02
-25.12
-23.75
-22.01
-19.83
-17.14
-13.90
-10.28
-6.64
-3.43
-1.09
0.20
0.61
0.69
1.22
2.96
6.35
11.35
17.36
23.40
28.41
31.55
32.37
30.93
27.67
23.16
18.05
12.85
7.81
2.96
-1.80
-6.63
-11.61
-16.59
-21.34
-25.57
-29.11
-31.97
-34.33
-36.38
-38.35
-40.38
-42.57
-45.04
-47.78
-50.72
-53.60
-56.10
-57.91
-58.89
-59.00
-58.26
-56.56
-53.62
-49.03
-42.53
-34.10
-24.13
-13.39
-2.77
6.96
15.26
21.97
27.16
31.04
33.77
35.47
36.18
36.02
35.22
34.13
33.19
32.70
32.76
33.25
33.83
34.11
33.78
32.70
30.90
28.57
25.92
23.14
20.35
17.58
14.75
11.78
8.57
5.03
1.18
-2.83
-6.69
-9.92
-11.99
-12.40
-10.92
-7.61
-2.89
2.53
7.94
12.73
16.59
19.43
21.35
22.47
22.87
22.58
21.64
20.26
18.71
17.31
16.31
15.77
15.59
15.52
15.26
14.60
13.48
11.98
10.34
8.83
7.62
6.76
6.10
5.39
4.32
2.65
0.33
-2.58
-5.76
-8.73
-10.86
-11.53
-10.33
-7.19
-2.55
2.88
8.26
12.94
16.57
19.14
20.84
21.92
22.59
22.97
23.16
23.25
23.32
23.43
23.58
23.69
23.73
23.69
23.56
23.33
23.03
22.62
22.13
21.58
20.99
20.34
19.57
18.53
17.09
15.16
12.70
9.81
6.68
3.58
0.89
-0.94
-1.55
-0.80
1.12
3.57
5.78
7.06
7.05
5.79
3.62
0.97
-1.89
-4.94
-8.30
-11.99
-15.79
-19.17
-21.41
-22.03
-21.02
-18.99
-17.02
-16.29
-17.62
-21.30
-27.12
-34.68
-43.58
-53.39
-63.48
-72.86
-80.19
-84.25
-84.42
-80.97
-74.89
-67.44
-59.51
-51.27
-42.37
-32.31
-21.05
-9.19
2.15
11.79
18.92
23.35
25.43
25.75
24.86
23.10
20.67
17.91
15.37
13.75
13.69
15.44
18.78
23.00
27.21
30.62
32.79
33.59
33.23
32.09
30.49
28.66
26.64
24.35
21.76
19.08
16.77
15.59
16.23
19.10
24.06
30.39
37.04
42.95
47.39
50.17
51.53
51.87
51.49
50.32
48.00
44.00
37.84
29.30
18.49
5.92
-7.55
-20.79
-32.45
-41.45
-47.25
-50.11
-51.10
-51.75
-53.53
-57.23
-62.71
-69.02
-74.87
-79.20
-81.58
-82.28
-81.91
-80.97
-79.46
-76.88
-72.40
-65.37
-55.64
-43.87
-31.41
-20.04
-11.46
-6.81
-6.35
-9.19
-13.61
-17.54
-19.17
-17.51
-12.55
-5.06
3.77
12.78
21.05
27.94
33.07
36.35
37.91
38.17
37.57
36.34
34.33
31.02
25.76
18.14
8.37
-2.56
-13.03
-21.12
-25.21
-24.46
-19.02
-10.03
0.78
11.55
20.73
27.37
31.18
32.30
31.19
28.42
24.61
20.37
16.26
12.68
9.79
7.49
5.44
3.30
0.82
-1.95
-4.73
-7.12
-8.80
-9.73
-10.20
-10.70
-11.60
-13.04
-14.82
-16.49
-17.48
-17.23
-15.27
-11.20
-4.84
3.64
13.64
24.10
33.78
41.58
46.82
49.33
49.34
47.26
43.48
38.38
32.33
25.85
19.49
13.69
8.65
4.29
0.33
-3.52
-7.43
-11.33
-14.98
-18.14
-20.66
-22.61
-24.26
-25.94
-27.98
-30.55
-33.59
-36.78
-39.61
-41.49
-41.83
-40.32
-36.93
-32.04
-26.27
-20.32
-14.78
-9.99
-6.10
-3.07
-0.87
0.54
1.21
1.30
1.07
0.84
0.83
1.12
1.59
1.99
2.15
1.95
1.48
0.85
0.20
-0.45
-1.18
-2.14
-3.56
-5.59
-8.25
-11.32
-14.32
-16.56
-17.33
-16.07
-12.66
-7.38
-0.92
5.91
12.34
17.89
22.31
25.52
27.54
28.37
28.03
26.63
24.42
21.73
18.88
16.09
13.39
10.73
8.01
5.22
2.53
0.11
-1.88
-3.40
-4.55
-5.56
-6.66
-7.99
-9.57
-11.14
-12.28
-12.45
-11.15
-8.15
-3.60
1.97
7.82
13.24
17.80
21.30
23.75
25.17
25.50
24.66
22.69
19.83
16.47
13.07
9.93
7.16
4.67
2.32
0.05
-2.10
-3.98
-5.52
-6.70
-7.63
-8.44
-9.29
-10.28
-11.50
-12.97
-14.63
-16.26
-17.43
-17.62
-16.34
-13.35
-8.81
-3.23
2.62
8.03
12.47
15.74
17.90
19.08
19.44
19.08
18.12
16.68
14.98
13.22
11.56
10.07
8.74
7.57
6.61
5.96
5.66
5.71
5.95
6.13
5.91
5.00
3.29
0.91
-1.74
-4.02
-5.22
-4.78
-2.47
1.52
6.60
12.01
16.97
20.93
23.62
25.04
25.29
24.56
23.05
20.99
18.68
16.37
14.28
12.43
10.72
8.99
7.10
5.11
3.17
1.47
0.09
-1.09
-2.36
-4.03
-6.31
-9.19
-12.39
-15.46
-17.78
-18.77
-18.03
-15.43
-11.24
-6.02
-0.52
4.57
8.78
11.95
14.10
15.34
15.72
15.28
14.11
12.39
10.41
8.49
6.81
5.41
4.17
2.93
1.64
0.36
-0.78
-1.70
-2.42
-3.17
-4.22
-5.80
-8.05
-10.89
-14.11
-17.33
-20.15
-22.14
-22.97
-22.41
-20.40
-17.07
-12.68
-7.60
-2.29
2.74
7.03
10.15
11.89
12.20
11.29
9.53
7.36
5.29
3.73
3.06
3.46
4.93
7.14
9.57
11.60
12.85
13.32
13.46
13.99
15.44
17.97
21.21
24.50
27.22
29.11
30.40
31.62
33.36
35.97
39.50
43.74
48.33
52.87
56.92
60.05
61.81
61.86
60.11
56.71
52.13
46.93
41.68
36.76
32.28
28.08
23.89
19.40
14.43
9.02
3.33
-2.44
-8.23
-14.20
-20.66
-27.85
-35.86
-44.49
-53.39
-62.17
-70.47
-77.95
-84.21
-88.74
-90.91
-90.22
-86.38
-79.46
-69.85
-58.18
-45.19
-31.73
-18.73
-7.06
2.49
9.51
14.00
16.33
17.14
17.07
16.61
16.04
15.46
14.83
14.02
12.89
11.20
8.77
5.46
1.23
-3.87
-9.65
-15.92
-22.43
-28.86
-34.83
-39.91
-43.69
-45.89
-46.47
-45.61
-43.56
-40.53
-36.56
-31.59
-25.63
-18.88
-11.88
-5.29
0.28
4.53
7.50
9.48
10.82
11.71
12.19
12.22
11.77
11.00
10.20
9.71
9.82
10.60
11.95
13.59
15.16
16.32
16.88
16.80
16.15
15.11
13.89
12.62
11.38
10.09
8.67
7.00
5.03
2.79
0.41
-1.83
-3.58
-4.44
-4.03
-2.16
1.10
5.36
10.02
14.41
18.00
20.54
22.11
22.93
23.26
23.21
22.71
21.53
19.44
16.34
12.28
7.52
2.38
-2.73
-7.35
-11.05
-13.56
-14.80
-15.04
-14.74
-14.42
-14.47
-14.99
-15.92
-17.07
-18.32
-19.62
-20.96
-22.27
-23.45
-24.39
-25.08
-25.57
-25.86
-25.73
-24.66
-21.97
-17.12
-9.93
-0.84
9.23
19.09
27.68
34.37
39.07
42.15
44.16
45.66
46.99
48.26
49.48
50.64
51.77
52.94
54.16
55.26
55.98
55.98
55.06
53.23
50.67
47.51
43.54
38.17
30.57
20.00
6.26
-10.18
-28.27
-46.78
-64.73
-81.57
-96.95
-110.24
-120.23
-125.14
-123.20
-113.38
-96.10
-73.34
-48.17
-23.96
-3.50
11.44
20.17
22.92
20.50
14.18
5.41
-4.21
-13.24
-20.61
-25.82
-28.92
-30.37
-30.68
-30.21
-29.07
-27.21
-24.56
-21.17
-17.27
-13.20
-9.28
-5.80
-2.98
-0.99
-0.05
-0.35
-2.01
-4.89
-8.54
-12.26
-15.30
-17.12
-17.53
-16.74
-15.20
-13.42
-11.76
-10.29
-8.86
-7.20
-5.08
-2.48
0.47
3.52
6.43
9.07
11.53
13.92
16.30
18.56
20.38
21.34
21.17
19.89
17.82
15.48
13.32
11.55
10.10
8.74
7.20
5.38
3.26
0.93
-1.55
-4.11
-6.60
-8.74
-10.18
-10.60
-9.89
-8.20
-5.90
-3.44
-1.18
0.72
2.29
3.65
4.92
6.14
7.20
7.97
8.27
7.99
7.11
5.68
3.76
1.41
-1.32
-4.26
-7.13
-9.57
-11.20
-11.85
-11.57
-10.68
-9.59
-8.80
-8.65
-9.37
-10.99
-13.39
-16.26
-19.20
-21.83
-23.77
-24.79
-24.80
-23.84
-22.12
-19.90
-17.54
-15.30
-13.35
-11.72
-10.34
-9.12
-7.90
-6.66
-5.35
-3.97
-2.50
-0.93
0.76
2.55
4.37
6.15
7.69
8.80
9.25
8.92
7.84
6.18
4.17
2.04
-0.11
-2.31
-4.66
-7.23
-9.94
-12.50
-14.48
-15.35
-14.71
-12.41
-8.60
-3.64
2.05
8.12
14.38
20.68
26.78
32.34
36.90
40.09
41.80
42.23
41.85
41.17
40.55
40.01
39.27
37.92
35.54
32.00
27.46
22.39
17.40
13.05
9.64
7.10
5.03
2.84
-0.11
-4.24
-9.65
-15.96
-22.41
-27.92
-31.47
-32.29
-30.17
-25.45
-18.90
-11.44
-3.88
3.24
9.68
15.34
20.17
24.13
27.13
29.11
30.04
29.90
28.72
26.55
23.50
19.73
15.49
11.00
6.53
2.31
-1.44
-4.49
-6.67
-7.94
-8.39
-8.33
-8.20
-8.55
-9.84
-12.47
-16.64
-22.29
-29.11
-36.44
-43.36
-48.81
-51.81
-51.71
-48.33
-42.05
-33.65
-24.10
-14.37
-5.26
2.67
9.08
13.80
16.82
18.27
18.39
17.53
16.09
14.49
13.09
12.12
11.71
11.85
12.40
13.24
14.23
15.27
16.22
16.97
17.34
17.25
16.69
15.78
14.70
13.64
12.68
11.77
10.67
9.10
6.72
3.30
-1.17
-6.32
-11.43
-15.59
-17.97
-18.11
-16.11
-12.57
-8.29
-3.98
-0.04
3.46
6.59
9.47
12.03
14.11
15.51
16.12
15.96
15.13
13.77
11.97
9.80
7.36
4.79
2.31
0.20
-1.36
-2.39
-3.14
-3.96
-5.22
-7.09
-9.44
-11.89
-14.02
-15.46
-16.14
-16.30
-16.39
-16.97
-18.37
-20.61
-23.23
-25.41
-26.20
-24.80
-20.81
-14.42
-6.21
2.97
12.27
21.01
28.76
35.24
40.32
43.97
46.31
47.57
48.11
48.31
48.48
48.77
49.21
49.66
49.97
49.98
49.60
48.83
47.71
46.29
44.61
42.66
40.41
37.88
35.09
32.15
29.17
26.21
23.30
20.41
17.48
14.45
11.30
8.03
4.69
1.32
-2.11
-5.66
-9.44
-13.57
-18.04
-22.63
-26.88
-30.16
-31.85
-31.58
-29.36
-25.65
-21.16
-16.70
-12.89
-10.07
-8.26
-7.22
-6.67
-6.30
-5.94
-5.42
-4.65
-3.54
-2.03
-0.13
2.06
4.33
6.48
8.35
9.90
11.21
12.38
13.45
14.38
15.03
15.26
15.01
14.34
13.46
12.61
12.02
11.76
11.76
11.77
11.51
10.73
9.26
6.98
3.90
0.07
-4.33
-9.00
-13.49
-17.33
-20.08
-21.48
-21.48
-20.22
-18.01
-15.17
-12.13
-9.21
-6.82
-5.22
-4.56
-4.79
-5.65
-6.76
-7.78
-8.49
-8.91
-9.19
-9.53
-10.05
-10.70
-11.28
-11.55
-11.38
-10.78
-9.94
-9.10
-8.51
-8.33
-8.67
-9.49
-10.72
-12.22
-13.82
-15.42
-16.99
-18.55
-20.21
-22.12
-24.37
-27.01
-29.92
-32.80
-35.20
-36.63
-36.62
-34.97
-31.75
-27.34
-22.27
-17.06
-12.02
-7.36
-3.12
0.63
3.79
6.25
7.97
9.02
9.65
10.12
10.66
11.33
12.03
12.60
12.89
12.84
12.47
11.85
11.04
10.07
8.98
7.85
6.81
6.00
5.51
5.29
5.17
4.90
4.29
3.27
1.94
0.49
-0.79
-1.67
-2.06
-2.05
-1.93
-2.06
-2.71
-3.92
-5.35
-6.33
-6.12
-4.11
-0.17
5.28
11.44
17.45
22.71
27.14
31.18
35.47
40.49
46.25
52.27
57.79
62.14
65.09
66.98
68.54
70.49
73.14
76.14
78.45
78.76
76.00
69.73
60.39
49.14
37.39
26.36
16.64
8.14
0.18
-8.44
-19.25
-33.88
-53.36
-77.32
-103.44
-127.62
-145.21
-152.78
-149.69
-138.47
-123.68
-109.78
-99.25
-91.70
-84.74
-75.69
-63.15
-47.66
-31.07
-15.40
-1.85
9.33
18.38
25.33
29.63
30.41
27.18
20.37
11.52
2.84
-3.67
-6.81
-6.64
-4.22
-1.14
1.23
2.20
2.03
1.67
2.38
5.11
10.03
16.41
22.87
27.89
30.41
30.19
27.86
24.55
21.39
19.01
17.36
15.71
13.03
8.38
1.35
-7.71
-17.71
-27.10
-34.26
-38.00
-37.79
-33.98
-27.67
-20.59
-14.66
-11.58
-12.21
-16.27
-22.30
-28.13
-31.77
-32.09
-29.27
-24.49
-19.15
-14.36
-10.65
-8.38
-8.09
-10.84
-17.78
-29.48
-45.08
-62.12
-77.11
-86.87
-89.58
-85.22
-75.25
-61.78
-46.63
-30.91
-15.12
0.30
14.06
24.18
28.71
26.59
18.34
6.09
-6.93
-17.25
-22.18
-21.30
-15.94
-8.42
-0.85
5.60
10.84
15.54
20.74
27.19
33.68
38.16
38.66
34.48
26.39
16.00
5.08
-4.87
-12.79
-19.75
-27.36
-37.01
-49.39
-64.93
-84.64
-110.16
-142.85
-171.86
-185.98
-177.54
-147.46
-103.89
-56.42
-12.04
25.66
55.83
79.25
95.69
104.79
106.64
102.67
95.48
87.82
81.68
77.96
76.68
76.02
73.92
69.26
62.47
55.17
49.25
46.05
46.07
49.17
53.65
56.94
56.46
50.95
41.49
31.41
25.67
28.86
42.99
65.63
90.49
110.11
119.38
116.95
104.58
85.13
60.73
32.55
1.65
-29.49
-57.13
-76.98
-86.17
-84.90
-75.97
-63.17
-49.47
-36.34
-23.97
-12.44
-2.52
4.43
6.65
3.78
-3.02
-11.61
-19.65
-25.49
-28.44
-28.69
-26.99
-24.37
-21.70
-19.47
-17.93
-17.08
-16.84
-17.16
-17.93
-18.66
-18.49
-16.39
-11.71
-4.82
2.97
10.09
15.15
17.62
17.83
16.63
14.83
13.06
11.57
10.71
11.10
13.56
18.72
26.54
35.93
44.91
51.12
52.56
48.66
40.68
31.47
24.37
21.89
24.54
30.09
35.96
39.31
38.72
34.60
28.60
22.55
17.56
13.76
10.67
7.86
5.22
3.14
2.17
2.60
4.22
6.35
8.30
9.76
11.07
12.75
14.98
17.04
17.35
14.15
6.54
-4.84
-17.93
-30.06
-39.16
-44.48
-46.50
-46.44
-45.50
-44.45
-43.67
-43.29
-43.46
-44.29
-45.66
-47.33
-48.39
-48.00
-45.53
-40.69
-33.72
-25.36
-16.67
-8.69
-2.09
3.05
7.07
10.47
13.51
16.01
17.57
17.86
17.08
15.98
15.62
16.85
19.94
24.33
28.87
32.23
33.49
32.46
29.54
25.48
20.93
16.19
11.33
6.40
1.70
-2.11
-4.21
-3.98
-1.38
2.98
8.01
12.54
15.58
16.63
15.66
13.01
9.27
5.04
0.91
-2.65
-5.28
-6.76
-7.06
-6.37
-5.10
-3.75
-2.72
-2.10
-1.58
-0.54
1.70
5.54
10.78
16.67
22.14
26.03
27.37
25.68
20.95
13.49
3.78
-7.48
-19.13
-29.45
-36.45
-38.30
-34.06
-24.10
-10.16
5.12
19.10
29.91
36.86
40.29
41.13
40.42
38.94
37.07
34.63
31.10
25.93
18.72
9.46
-1.41
-13.06
-24.29
-33.76
-40.71
-44.94
-47.00
-48.02
-49.40
-52.39
-57.50
-64.15
-70.57
-74.85
-75.36
-71.52
-64.05
-54.91
-46.81
-42.23
-42.65
-45.41
-47.32
-45.99
-41.64
-36.67
-33.45
-32.47
-32.17
-30.24
-25.08
-17.16
-8.42
-0.98
4.50
8.87
13.93
21.03
29.93
38.75
44.34
43.73
35.24
19.91
1.38
-14.36
-20.61
-12.31
11.79
47.95
88.81
125.32
150.23
159.90
155.08
139.65
118.31
95.00
72.36
52.32
35.49
24.67
20.80
22.65
26.89
29.09
25.64
15.17
-0.98
-19.47
-36.38
-49.32
-57.76
-62.78
-66.21
-69.29
-71.88
-72.74
-70.48
-64.45
-55.78
-47.09
-40.09
-35.69
-33.26
-30.96
-26.80
-19.74
-10.13
0.32
9.65
16.62
20.88
22.87
23.34
22.85
21.60
19.63
16.98
13.94
11.02
8.58
6.76
5.37
3.98
2.15
-0.41
-3.57
-6.77
-9.12
-9.77
-8.20
-4.62
0.07
4.51
7.37
7.97
6.49
3.87
1.34
0.09
0.79
3.34
7.10
11.24
15.17
18.63
21.59
24.00
25.54
25.60
23.60
19.23
12.59
4.04
-6.07
-17.55
-30.19
-43.50
-56.48
-67.62
-75.34
-78.64
-77.43
-72.54
-65.34
-57.08
-48.52
-39.84
-30.91
-21.63
-12.09
-2.57
6.72
15.70
24.55
33.50
42.64
51.84
60.61
68.26
73.87
76.48
75.20
69.36
58.63
43.13
23.48
0.94
-22.57
-44.56
-62.21
-72.95
-75.12
-68.57
-54.91
-37.15
-18.78
-2.78
9.18
16.90
21.29
23.64
25.04
26.09
26.89
27.26
26.96
25.84
23.91
21.30
18.33
15.65
14.20
14.93
18.35
23.99
30.12
34.12
33.33
26.28
13.52
-2.32
-17.57
-28.91
-34.60
-34.82
-30.89
-24.28
-15.67
-4.94
8.23
23.45
39.27
53.44
63.77
68.99
69.21
65.61
59.77
52.84
45.11
36.14
25.42
12.93
-0.48
-13.31
-23.96
-31.38
-35.44
-36.86
-36.84
-36.43
-36.19
-36.11
-35.78
-34.71
-32.50
-29.00
-24.36
-18.97
-13.40
-8.26
-3.93
-0.41
2.69
5.95
9.91
14.79
20.39
26.14
31.12
34.51
35.73
34.54
31.12
25.95
19.80
13.45
7.66
2.90
-0.77
-3.75
-6.73
-10.41
-15.07
-20.33
-25.37
-29.17
-31.13
-31.26
-30.18
-28.77
-27.71
-27.15
-26.77
-26.16
-25.08
-23.71
-22.55
-22.05
-22.39
-23.34
-24.47
-25.45
-26.22
-26.85
-27.37
-27.52
-26.71
-24.40
-20.46
-15.29
-9.71
-4.53
-0.18
3.43
6.70
10.08
13.63
17.09
19.94
21.76
22.45
22.32
21.99
22.16
23.52
26.39
30.75
36.18
41.93
47.18
51.17
53.38
53.61
52.11
49.44
46.41
43.76
41.86
40.50
38.84
35.57
29.32
19.07
4.58
-13.41
-33.21
-52.52
-69.01
-80.89
-87.43
-89.11
-87.41
-84.19
-80.98
-78.44
-76.19
-73.11
-67.94
-59.83
-48.75
-35.38
-20.91
-6.57
6.59
17.69
26.07
31.31
33.44
33.06
31.36
29.74
29.25
30.09
31.50
32.28
31.48
29.14
26.24
24.31
24.46
26.83
30.48
34.00
36.28
37.01
36.86
36.85
37.88
40.23
43.55
47.17
50.34
52.52
53.38
52.79
50.81
47.69
43.92
40.12
36.88
34.48
32.75
31.04
28.44
24.24
18.31
11.38
4.92
0.70
0.06
3.37
9.76
17.55
24.98
30.86
34.86
37.22
38.14
37.36
34.14
27.59
17.19
3.26
-13.17
-30.42
-46.44
-59.17
-66.87
-68.45
-63.97
-55.08
-45.05
-38.27
-38.68
-48.16
-65.31
-85.56
-102.68
-111.02
-107.56
-93.01
-71.47
-48.28
-27.85
-12.38
-1.94
4.59
8.47
10.67
11.95
12.38
12.73
14.63
19.77
28.69
40.11
51.46
60.21
65.14
64.99
60.41
53.73
47.80
44.20
42.42
40.61
36.78
29.40
14.60
-10.18
-44.57
-84.73
-125.03
-160.10
-186.24
-202.34
-210.18
-217.50
-231.28
-253.92
-282.25
-310.59
-334.57
-353.04
-367.82
-357.86
-312.59
-237.00
-149.43
-67.24
1.79
57.18
100.98
135.21
161.40
177.15
181.32
175.78
165.31
154.72
146.65
142.01
141.08
143.92
147.06
146.90
140.93
129.09
113.18
96.07
82.29
77.37
85.42
104.88
130.36
153.57
166.81
164.71
146.07
111.40
64.77
12.85
-37.58
-80.02
-109.60
-123.56
-118.85
-101.38
-79.55
-59.67
-43.73
-31.13
-16.75
3.65
32.03
66.16
100.26
128.02
142.51
142.37
131.11
114.34
96.09
77.24
55.25
27.46
-7.78
-47.80
-86.69
-118.43
-139.01
-147.72
-142.50
-128.09
-110.26
-93.28
-78.89
-66.68
-56.03
-46.30
-36.33
-23.66
-5.73
19.38
50.19
80.68
102.46
108.16
95.66
69.66
39.27
12.58
-6.42
-18.81
-27.90
-35.09
-37.87
-31.41
-12.25
18.30
53.16
82.75
99.00
97.80
83.18
62.85
44.48
32.21
25.74
21.78
16.98
10.04
2.21
-3.64
-5.37
-2.66
2.90
8.62
11.97
11.90
9.00
5.10
2.55
2.78
6.01
11.24
16.60
19.97
19.60
14.59
5.28
-6.76
-19.49
-30.99
-40.30
-47.51
-53.62
-59.02
-63.26
-65.04
-62.74
-55.44
-43.63
-29.06
-14.27
-1.64
7.17
11.47
11.50
8.46
4.35
1.58
2.29
7.34
15.79
24.99
31.61
33.08
28.75
20.07
9.77
0.68
-5.33
-7.63
-6.66
-3.41
0.86
4.72
6.83
5.90
1.72
-4.78
-11.81
-17.44
-20.36
-20.23
-17.61
-13.44
-8.71
-4.12
-0.25
2.34
3.23
2.38
0.28
-2.08
-3.62
-3.63
-2.13
0.10
1.87
2.15
0.65
-2.09
-4.89
-6.51
-6.19
-4.08
-1.15
1.15
1.73
0.32
-2.41
-5.20
-7.01
-7.36
-6.74
-6.30
-7.39
-11.13
-18.13
-28.58
-41.98
-56.64
-69.28
-75.71
-72.15
-57.24
-33.27
-5.60
19.33
36.66
45.02
46.56
45.23
44.56
45.93
48.69
51.39
53.04
53.73
54.09
54.46
53.68
51.12
45.85
37.46
26.83
15.77
6.28
-0.14
-3.06
-3.32
-2.27
-1.48
-1.86
-3.33
-5.04
-5.98
-5.45
-3.49
-0.89
1.46
2.70
2.60
1.56
0.40
-0.13
0.40
2.04
4.49
7.15
8.95
8.52
4.55
-3.44
-14.72
-27.21
-38.15
-45.25
-47.45
-45.31
-40.44
-34.60
-28.87
-23.46
-18.05
-12.45
-6.97
-2.35
0.66
1.79
1.46
0.55
0.02
0.56
2.23
4.48
6.48
7.47
7.25
6.28
5.46
5.62
7.10
9.53
11.92
13.28
12.96
10.98
7.87
4.43
1.25
-1.42
-3.55
-5.29
-6.59
-7.22
-6.84
-5.06
-1.62
3.52
10.04
17.29
24.32
30.09
33.79
35.05
34.11
31.63
28.45
25.22
22.29
19.77
17.65
15.90
14.47
13.30
12.12
10.65
8.62
5.99
3.07
0.44
-1.27
-1.93
-2.07
-2.67
-4.64
-8.24
-13.00
-18.05
-22.91
-28.08
-35.05
-45.52
-60.49
-79.59
-101.18
-123.20
-143.84
-161.97
-176.68
-186.65
-189.88
-184.31
-168.93
-144.61
-114.28
-81.63
-49.67
-19.49
9.65
39.02
68.95
97.89
122.87
140.83
150.05
150.77
144.83
134.57
121.93
108.07
93.76
79.87
67.50
57.70
50.86
46.45
43.16
39.52
34.58
28.22
20.89
13.23
5.64
-1.88
-9.57
-17.62
-26.00
-34.32
-42.02
-48.41
-52.94
-55.26
-55.40
-53.89
-51.67
-49.78
-48.94
-49.16
-49.61
-48.92
-45.71
-39.09
-29.06
-16.42
-2.68
10.40
21.06
27.91
30.19
27.97
22.28
14.91
8.08
3.81
3.34
6.85
13.45
21.50
29.17
34.83
37.38
36.47
32.49
26.43
19.68
13.67
9.36
6.96
5.88
5.11
3.65
0.97
-2.98
-7.89
-13.30
-18.62
-23.09
-25.69
-25.27
-20.96
-12.53
-0.61
13.47
28.08
41.77
53.54
62.78
69.25
72.91
74.02
73.12
70.91
67.97
64.50
60.28
54.79
47.62
38.88
29.37
20.48
13.72
10.01
9.20
9.96
10.08
7.30
0.10
-11.59
-26.27
-41.29
-53.74
-61.47
-63.79
-61.71
-57.53
-53.84
-52.58
-54.20
-57.50
-60.02
-58.95
-52.27
-39.36
-21.33
-0.49
20.43
39.17
54.49
66.21
74.84
81.09
85.39
87.88
88.58
87.67
85.58
82.90
80.15
77.63
75.40
73.43
71.51
69.18
65.48
59.08
48.67
33.68
14.85
-5.75
-25.33
-41.39
-52.59
-59.08
-62.14
-63.35
-63.97
-64.70
-65.97
-68.21
-71.93
-77.47
-84.55
-92.04
-98.24
-101.37
-100.30
-94.92
-86.14
-75.38
-63.99
-52.79
-41.99
-31.42
-20.86
-10.28
0.00
9.42
17.34
23.32
27.31
29.78
31.61
33.79
36.90
40.71
43.94
44.75
41.43
33.35
21.40
7.84
-4.59
-13.72
-18.79
-20.57
-20.73
-21.05
-22.66
-25.80
-29.92
-34.06
-37.21
-38.62
-37.98
-35.48
-31.82
-27.95
-24.65
-22.28
-20.58
-18.88
-16.50
-13.12
-8.89
-4.25
0.44
5.13
10.08
15.55
21.44
27.10
31.57
33.97
34.06
32.48
30.71
30.54
33.36
39.57
48.27
57.52
64.80
67.85
65.35
57.43
45.73
32.97
21.99
14.75
11.62
11.49
12.51
13.18
13.02
12.72
13.36
15.73
19.72
24.44
28.77
32.03
34.12
35.34
35.98
36.01
35.19
33.34
30.59
27.35
24.16
21.37
19.01
16.86
14.60
12.08
9.26
6.16
2.75
-1.14
-5.87
-11.87
-19.53
-28.97
-39.81
-51.10
-61.35
-69.02
-73.07
-73.46
-71.18
-67.87
-65.09
-63.70
-63.61
-63.99
-63.78
-62.23
-59.14
-54.91
-50.22
-45.79
-41.97
-38.63
-35.20
-30.89
-25.06
-17.54
-8.80
0.23
8.59
15.56
20.94
24.86
27.59
29.28
30.02
29.85
28.93
27.43
25.32
22.12
17.02
9.16
-1.73
-14.96
-28.82
-41.13
-49.97
-54.30
-54.10
-50.07
-43.17
-34.25
-23.96
-12.96
-2.00
8.13
16.78
23.67
28.88
32.69
35.40
37.17
38.02
37.91
36.94
35.31
33.24
30.96
28.63
26.37
24.28
22.38
20.54
18.50
16.01
12.91
9.28
5.27
0.99
-3.67
-8.91
-14.81
-21.07
-27.03
-31.86
-35.04
-36.71
-37.54
-38.36
-39.50
-40.49
-40.16
-37.28
-31.16
-22.09
-11.23
-0.16
9.77
17.89
24.22
29.28
33.60
37.43
40.70
43.11
44.28
44.01
42.35
39.63
36.38
33.24
30.77
29.27
28.58
27.99
26.47
22.95
16.88
8.45
-1.35
-11.12
-19.61
-26.03
-30.33
-32.96
-34.55
-35.62
-36.35
-36.64
-36.18
-34.54
-31.34
-26.31
-19.49
-11.26
-2.32
6.46
14.28
20.59
25.21
28.29
30.20
31.46
32.60
34.07
36.12
38.71
41.41
43.35
43.43
40.65
34.55
25.61
15.19
5.14
-2.81
-7.79
-10.12
-11.13
-12.43
-15.28
-20.08
-26.29
-32.91
-38.89
-43.51
-46.25
-46.69
-44.23
-38.31
-28.75
-16.17
-2.22
10.80
20.56
25.60
25.83
22.42
17.30
12.36
8.78
6.87
6.25
6.28
6.41
6.31
5.79
4.69
2.92
0.43
-2.59
-5.78
-8.67
-10.82
-12.01
-12.24
-11.78
-11.10
-10.83
-11.64
-14.04
-18.29
-24.30
-31.61
-39.46
-46.87
-52.74
-55.94
-55.43
-50.49
-40.98
-27.47
-11.30
5.75
21.81
35.38
45.54
52.07
55.28
55.73
54.03
50.62
45.81
39.82
32.93
25.51
18.03
11.00
4.74
-0.58
-5.07
-8.98
-12.68
-16.45
-20.40
-24.43
-28.16
-31.19
-33.26
-34.34
-34.70
-34.82
-35.09
-35.71
-36.64
-37.55
-37.98
-37.40
-35.33
-31.47
-25.77
-18.55
-10.50
-2.50
4.68
10.54
15.07
18.57
21.46
24.10
26.60
28.86
30.64
31.71
31.94
31.32
30.03
28.32
26.51
24.82
23.35
22.04
20.73
19.22
17.42
15.33
13.04
10.67
8.25
5.77
3.17
0.38
-2.67
-6.07
-9.87
-14.05
-18.34
-22.17
-24.73
-25.16
-22.94
-18.15
-11.50
-4.12
2.78
8.37
12.28
14.60
15.69
15.87
15.41
14.47
13.23
11.85
10.62
9.70
9.19
8.98
8.85
8.47
7.60
6.12
4.07
1.68
-0.79
-3.12
-5.21
-7.13
-8.98
-10.91
-13.01
-15.32
-17.84
-20.49
-23.09
-25.24
-26.41
-26.01
-23.63
-19.23
-13.17
-6.14
1.04
7.67
13.27
17.65
20.86
23.00
24.19
24.48
23.99
22.84
21.30
19.69
18.34
17.47
17.12
17.21
17.55
17.91
18.09
17.96
17.48
16.71
15.86
15.21
14.99
15.21
15.65
15.83
15.20
13.32
10.04
5.59
0.52
-4.31
-7.99
-9.78
-9.29
-6.60
-2.17
3.32
9.24
15.13
20.67
25.61
29.68
32.55
33.99
33.92
32.45
29.83
26.37
22.35
18.05
13.69
9.42
5.30
1.24
-2.99
-7.46
-12.09
-16.59
-20.53
-23.68
-26.02
-27.80
-29.40
-31.10
-32.97
-34.90
-36.60
-37.67
-37.71
-36.31
-33.17
-28.23
-21.76
-14.36
-6.90
-0.15
5.33
9.33
11.91
13.30
13.76
13.47
12.61
11.36
9.98
8.84
8.25
8.48
9.55
11.31
13.44
15.59
17.48
18.94
19.92
20.41
20.40
19.83
18.64
16.72
14.01
10.42
5.95
0.68
-5.08
-10.81
-15.86
-19.59
-21.52
-21.53
-19.80
-16.75
-12.86
-8.54
-4.09
0.25
4.29
7.76
10.46
12.23
13.05
13.12
12.72
12.22
11.93
12.04
12.54
13.26
13.89
14.17
13.95
13.30
12.48
11.79
11.41
11.25
11.03
10.34
8.86
6.46
3.30
-0.21
-3.60
-6.34
-8.06
-8.49
-7.56
-5.39
-2.19
1.74
6.06
10.42
14.51
18.02
20.68
22.31
22.69
21.67
19.12
15.02
9.58
3.26
-3.27
-9.30
-14.42
-18.72
-22.70
-27.03
-32.07
-37.54
-42.52
-45.74
-46.17
-43.43
-38.04
-31.26
-24.57
-19.25
-15.94
-14.63
-14.86
-15.97
-17.21
-17.83
-17.12
-14.40
-9.35
-2.07
6.64
15.50
23.04
28.20
30.56
30.41
28.50
25.62
22.42
19.22
16.14
13.19
10.35
7.56
4.76
1.92
-0.95
-3.75
-6.31
-8.45
-10.08
-11.15
-11.64
-11.57
-10.97
-10.07
-9.24
-8.98
-9.63
-11.13
-12.92
-14.05
-13.46
-10.50
-5.10
2.19
10.42
18.61
25.94
31.92
36.29
38.99
40.08
39.76
38.39
36.50
34.61
33.11
32.09
31.32
30.35
28.66
25.88
21.94
17.08
11.77
6.59
1.99
-1.93
-5.40
-8.93
-13.09
-18.19
-24.28
-31.03
-37.96
-44.49
-50.14
-54.47
-57.13
-57.87
-56.61
-53.50
-48.91
-43.30
-37.14
-30.80
-24.61
-18.86
-13.87
-10.00
-7.56
-6.69
-7.26
-8.79
-10.62
-11.99
-12.30
-11.31
-9.30
-6.93
-5.00
-4.14
-4.59
-6.10
-8.19
-10.37
-12.47
-14.64
-17.35
-21.10
-26.26
-32.91
-40.76
-49.10
-56.90
-62.94
-66.11
-65.70
-61.65
-54.59
-45.59
-35.83
-26.25
-17.46
-9.73
-3.16
2.35
6.99
11.15
15.25
19.64
24.42
29.36
34.08
38.17
41.41
43.81
45.47
46.51
46.98
46.96
46.58
46.04
45.54
45.14
44.70
43.97
42.85
41.47
40.20
39.49
39.62
40.49
41.67
42.62
43.07
43.13
43.19
43.59
44.27
44.66
43.91
41.23
36.30
29.37
21.04
11.90
2.41
-7.14
-16.37
-24.60
-30.97
-34.74
-35.76
-34.65
-32.60
-30.86
-30.25
-30.89
-32.30
-33.84
-35.12
-36.10
-36.92
-37.51
-37.41
-35.86
-32.24
-26.49
-19.34
-12.14
-6.40
-3.19
-2.88
-5.01
-8.70
-12.94
-17.01
-20.60
-23.70
-26.36
-28.57
-30.12
-30.78
-30.44
-29.27
-27.72
-26.38
-25.76
-26.01
-27.02
-28.40
-29.75
-30.86
-31.77
-32.71
-33.91
-35.36
-36.68
-37.23
-36.31
-33.42
-28.52
-21.97
-14.43
-6.60
1.04
8.24
14.97
21.26
27.08
32.28
36.65
39.92
41.87
42.30
41.13
38.38
34.15
28.70
22.33
15.48
8.54
1.89
-4.32
-10.15
-15.85
-21.72
-27.94
-34.40
-40.54
-45.55
-48.46
-48.39
-44.77
-37.42
-26.69
-13.44
1.08
15.47
28.48
39.20
47.25
52.67
55.84
57.25
57.37
56.52
54.95
52.77
50.09
47.00
43.65
40.21
36.84
33.63
30.63
27.84
25.21
22.69
20.12
17.24
13.69
9.21
3.68
-2.77
-9.69
-16.52
-22.59
-27.27
-30.04
-30.59
-28.82
-25.02
-19.79
-13.85
-7.91
-2.37
2.70
7.39
11.75
15.62
18.60
20.23
20.28
18.90
16.61
14.06
11.84
10.20
9.10
8.33
7.66
7.02
6.40
5.90
5.53
5.16
4.49
3.18
0.90
-2.45
-6.69
-11.31
-15.51
-18.42
-19.34
-17.89
-14.18
-8.66
-2.02
5.03
11.91
18.15
23.42
27.44
29.96
30.84
30.13
28.15
25.41
22.45
19.63
17.10
14.74
12.34
9.76
7.04
4.43
2.30
0.92
0.37
0.46
0.75
0.75
0.01
-1.68
-4.18
-7.03
-9.49
-10.74
-10.03
-6.91
-1.29
6.55
16.03
26.44
37.05
47.30
56.75
65.11
72.17
77.77
81.81
84.32
85.57
86.05
86.36
87.02
88.25
89.95
91.68
92.82
92.79
91.17
87.72
82.37
75.10
65.85
54.57
41.22
25.84
8.55
-10.29
-30.08
-49.81
-68.29
-84.35
-97.30
-107.06
-114.08
-118.98
-122.03
-123.01
-121.29
-116.26
-107.68
-95.89
-81.68
-66.12
-50.22
-34.89
-20.85
-8.57
1.63
9.40
13.97
13.98
7.71
-6.06
-27.04
-52.93
-79.84
-103.65
-121.57
-132.94
-138.87
-140.91
-139.74
-134.66
-124.31
-107.89
-86.16
-61.48
-36.83
-14.66
3.91
18.87
30.59
39.11
43.89
44.24
39.96
31.88
21.75
11.61
3.15
-2.92
-6.83
-9.38
-11.32
-12.95
-13.98
-13.75
-11.72
-7.79
-2.45
3.37
8.67
12.71
15.16
16.08
15.68
14.17
11.77
8.68
5.16
1.54
-1.76
-4.36
-5.90
-6.09
-4.71
-1.62
3.12
9.21
16.11
23.14
29.64
35.06
39.11
41.69
42.88
42.79
41.50
39.12
35.84
31.97
28.00
24.50
21.96
20.56
20.19
20.46
20.90
21.13
20.96
20.35
19.41
18.16
16.62
14.72
12.37
9.50
6.08
2.16
-2.08
-6.31
-9.98
-12.50
-13.27
-11.94
-8.49
-3.30
2.96
9.53
15.72
21.10
25.45
28.73
30.93
32.02
31.90
30.61
28.32
25.40
22.33
19.52
17.19
15.29
13.61
11.86
9.84
7.49
4.83
1.92
-1.14
-4.27
-7.37
-10.38
-13.24
-16.06
-18.97
-22.14
-25.54
-28.85
-31.47
-32.61
-31.63
-28.26
-22.77
-15.77
-8.10
-0.48
6.53
12.52
17.13
19.95
20.62
18.93
15.08
9.68
3.63
-2.15
-7.03
-10.84
-13.78
-16.22
-18.48
-20.68
-22.80
-24.72
-26.39
-27.80
-28.89
-29.58
-29.67
-28.99
-27.48
-25.31
-22.77
-20.23
-17.92
-15.79
-13.57
-10.87
-7.41
-3.15
1.65
6.51
10.97
14.72
17.66
19.91
21.59
22.77
23.48
23.75
23.71
23.60
23.70
24.19
25.06
26.10
26.92
27.08
26.17
23.91
20.20
15.16
9.03
2.18
-5.03
-12.20
-19.01
-25.17
-30.41
-34.50
-37.17
-38.15
-37.21
-34.23
-29.23
-22.50
-14.62
-6.39
1.36
7.95
13.05
16.65
19.04
20.50
21.22
21.20
20.34
18.58
16.08
13.24
10.52
8.39
7.05
6.49
6.55
7.00
7.71
8.68
9.95
11.50
13.21
14.74
15.66
15.56
14.20
11.56
7.91
3.72
-0.48
-4.13
-6.88
-8.52
-9.05
-8.63
-7.50
-5.93
-4.15
-2.38
-0.82
0.31
0.79
0.48
-0.68
-2.56
-4.85
-7.10
-8.84
-9.61
-9.20
-7.65
-5.31
-2.70
-0.40
1.27
2.20
2.62
2.85
3.13
3.45
3.56
3.03
1.48
-1.26
-5.07
-9.63
-14.43
-18.92
-22.53
-24.74
-25.17
-23.66
-20.32
-15.55
-9.97
-4.29
0.82
4.88
7.67
9.21
9.74
9.60
9.05
8.26
7.14
5.45
2.85
-0.94
-5.99
-12.15
-18.99
-25.88
-32.11
-37.05
-40.27
-41.60
-41.15
-39.23
-36.17
-32.19
-27.35
-21.64
-15.13
-8.05
-0.85
5.87
11.43
15.25
17.03
16.82
15.07
12.61
10.38
9.31
9.98
12.56
16.81
22.12
27.73
32.80
36.65
38.79
39.06
37.65
35.07
31.98
29.00
26.64
25.16
24.59
24.76
25.30
25.73
25.52
24.23
21.66
17.88
13.23
8.16
3.09
-1.62
-5.61
-8.50
-9.87
-9.36
-6.85
-2.53
3.08
9.27
15.37
20.84
25.39
28.85
31.19
32.43
32.73
32.44
32.07
32.13
32.90
34.31
35.90
36.99
37.04
35.83
33.52
30.56
27.41
24.34
21.41
18.50
15.44
12.08
8.29
3.86
-1.48
-7.82
-14.74
-21.15
-25.59
-26.85
-24.62
-19.87
-14.33
-9.64
-6.51
-4.55
-2.85
-0.99
0.34
-0.37
-4.63
-12.90
-24.39
-37.50
-50.76
-63.46
-75.59
-87.11
-97.35
-104.94
-108.40
-107.01
-101.17
-92.28
-81.94
-71.30
-60.85
-50.78
-41.39
-33.38
-27.64
-24.80
-24.93
-27.53
-31.85
-37.17
-42.81
-47.87
-51.06
-50.79
-45.72
-35.40
-20.69
-3.61
13.29
27.81
38.67
45.67
49.32
50.44
49.73
47.71
44.84
41.60
38.61
36.37
35.11
34.65
34.43
33.75
32.11
29.49
26.32
23.28
20.91
19.31
18.13
16.75
14.58
11.39
7.35
2.90
-1.48
-5.51
-9.05
-11.98
-14.01
-14.58
-13.08
-9.08
-2.71
5.29
13.69
21.18
26.75
30.03
31.32
31.42
31.27
31.53
32.46
33.81
35.10
35.76
35.47
34.19
32.14
29.72
27.39
25.58
24.61
24.47
24.56
23.56
19.65
11.07
-2.99
-21.86
-43.24
-63.81
-80.32
-90.66
-94.42
-92.77
-87.79
-81.46
-75.00
-68.68
-62.10
-54.72
-46.37
-37.27
-27.95
-18.89
-10.35
-2.40
4.83
11.02
15.56
17.92
17.93
16.05
13.29
10.85
9.68
10.15
12.03
14.62
17.09
18.76
19.27
18.58
16.93
14.64
12.04
9.39
6.80
4.32
1.89
-0.57
-3.21
-6.16
-9.56
-13.34
-17.20
-20.58
-22.73
-22.94
-20.78
-16.30
-10.02
-2.80
4.39
10.75
15.76
19.20
21.11
21.60
20.89
19.21
16.91
14.44
12.29
10.85
10.30
10.50
11.09
11.65
11.79
11.36
10.36
8.99
7.46
5.90
4.39
2.93
1.53
0.20
-1.06
-2.32
-3.72
-5.41
-7.49
-9.80
-11.92
-13.22
-13.00
-10.82
-6.61
-0.81
5.87
12.56
18.60
23.60
27.53
30.55
32.84
34.49
35.33
35.19
33.91
31.66
28.88
26.16
23.91
22.24
20.84
19.24
17.11
14.52
11.97
10.06
9.18
9.34
10.10
10.80
10.80
9.56
6.72
2.11
-4.20
-11.84
-19.99
-27.53
-33.27
-36.40
-36.70
-34.66
-31.19
-27.28
-23.70
-20.77
-18.53
-16.91
-15.89
-15.50
-15.76
-16.55
-17.50
-18.16
-18.12
-17.26
-15.74
-13.89
-12.09
-10.55
-9.26
-8.06
-6.74
-5.13
-3.22
-1.12
0.91
2.56
3.50
3.52
2.60
0.92
-1.15
-3.11
-4.43
-4.64
-3.43
-0.74
3.26
8.12
13.26
18.11
22.29
25.68
28.35
30.53
32.40
34.06
35.55
36.92
38.30
39.90
41.91
44.45
47.53
51.05
54.85
58.78
62.74
66.71
70.69
74.68
78.67
82.65
86.58
90.47
94.26
97.95
101.51
104.95
108.24
111.34
114.14
116.53
118.45
119.91
120.80
120.66
118.48
112.72
101.72
84.28
60.28
30.83
-2.03
-35.84
-68.23
-97.31
-121.82
-141.22
-155.74
-166.27
-174.14
-180.50
-185.78
-189.30
-189.61
-185.34
-176.10
-162.85
-147.63
-132.69
-119.68
-109.20
-101.02
-94.61
-89.54
-85.59
-82.58
-80.08
-77.20
-72.87
-66.23
-57.22
-46.65
-36.01
-26.90
-20.45
-17.00
-16.02
-16.61
-17.96
-19.70
-21.88
-24.64
-27.89
-31.14
-33.57
-34.20
-32.28
-27.44
-19.76
-9.82
1.39
12.68
22.84
30.96
36.56
39.64
40.53
39.70
37.63
34.71
31.28
27.57
23.70
19.78
15.90
12.30
9.48
8.01
8.32
10.51
14.19
18.64
23.12
27.06
30.24
32.61
34.15
34.73
34.23
32.71
30.49
28.14
26.19
24.91
24.25
23.93
23.62
23.06
22.09
20.60
18.53
15.92
12.96
10.04
7.54
5.70
4.45
3.45
2.19
0.23
-2.66
-6.53
-11.19
-16.34
-21.54
-26.19
-29.63
-31.21
-30.48
-27.39
-22.34
-16.14
-9.73
-3.89
0.94
4.76
7.83
10.40
12.50
13.86
14.10
13.05
10.89
8.20
5.72
3.99
3.12
2.79
2.48
1.78
0.61
-0.79
-2.07
-3.00
-3.68
-4.43
-5.54
-7.06
-8.73
-10.11
-10.89
-11.08
-11.01
-11.24
-12.21
-14.09
-16.64
-19.34
-21.53
-22.50
-21.77
-19.06
-14.47
-8.44
-1.65
5.12
11.19
16.10
19.63
21.76
22.59
22.31
21.17
19.42
17.30
14.98
12.53
9.95
7.21
4.34
1.53
-0.96
-2.91
-4.25
-5.10
-5.74
-6.46
-7.45
-8.67
-9.90
-10.88
-11.50
-11.82
-12.08
-12.48
-13.13
-13.99
-14.99
-16.11
-17.38
-18.84
-20.29
-21.23
-20.97
-18.86
-14.63
-8.57
-1.40
5.98
12.81
18.71
23.59
27.53
30.62
32.84
34.11
34.44
34.01
33.13
32.17
31.40
30.88
30.54
30.21
29.78
29.24
28.74
28.47
28.57
29.04
29.73
30.41
30.86
30.92
30.56
29.80
28.74
27.40
25.76
23.74
21.24
18.29
15.09
12.05
9.68
8.36
8.21
9.01
10.30
11.53
12.16
11.71
9.76
6.07
0.69
-5.91
-12.91
-19.43
-24.94
-29.37
-33.15
-36.75
-40.37
-43.70
-46.07
-46.92
-46.11
-44.16
-42.02
-40.66
-40.77
-42.50
-45.60
-49.49
-53.57
-57.23
-59.94
-61.32
-61.21
-59.83
-57.86
-56.27
-56.04
-57.74
-61.19
-65.39
-68.78
-69.68
-66.81
-59.53
-48.02
-33.14
-16.30
0.74
16.18
28.48
36.70
40.74
41.29
39.56
36.84
34.08
31.73
29.82
28.22
26.85
25.73
24.98
24.65
24.61
24.62
24.39
23.72
22.56
20.96
19.01
16.77
14.21
11.31
8.06
4.49
0.62
-3.56
-8.05
-12.81
-17.63
-22.12
-25.65
-27.51
-27.13
-24.27
-19.19
-12.52
-5.14
2.10
8.55
13.82
17.71
20.17
21.20
20.89
19.45
17.23
14.76
12.59
11.18
10.74
11.18
12.20
13.33
14.18
14.51
14.31
13.75
12.98
12.08
10.97
9.51
7.56
5.17
2.48
-0.33
-3.12
-5.91
-8.86
-12.14
-15.82
-19.75
-23.56
-26.62
-28.27
-27.87
-25.08
-19.95
-13.04
-5.23
2.45
9.16
14.37
17.97
20.10
20.98
20.79
19.63
17.59
14.87
11.82
8.88
6.47
4.86
4.10
4.00
4.21
4.34
4.06
3.22
1.94
0.50
-0.75
-1.60
-2.10
-2.49
-3.16
-4.34
-6.09
-8.26
-10.64
-13.12
-15.62
-17.98
-19.84
-20.57
-19.43
-15.97
-10.23
-2.84
5.15
12.68
18.98
23.78
27.17
29.43
30.74
31.11
30.51
28.94
26.66
24.14
21.87
20.27
19.49
19.42
19.69
19.86
19.51
18.42
16.51
13.88
10.75
7.37
3.99
0.73
-2.44
-5.71
-9.38
-13.74
-18.90
-24.62
-30.24
-34.83
-37.43
-37.36
-34.45
-29.10
-22.13
-14.51
-7.13
-0.67
4.45
7.99
9.84
10.07
8.91
6.81
4.30
1.88
-0.19
-1.90
-3.41
-4.94
-6.57
-8.16
-9.40
-10.05
-10.00
-9.43
-8.67
-8.13
-8.08
-8.59
-9.58
-10.87
-12.31
-13.86
-15.51
-17.23
-18.82
-19.86
-19.84
-18.31
-15.11
-10.42
-4.77
1.24
7.02
12.22
16.64
20.21
22.78
24.20
24.40
23.43
21.60
19.35
17.16
15.34
14.01
13.09
12.36
11.61
10.70
9.54
8.11
6.45
4.63
2.81
1.09
-0.41
-1.70
-2.87
-4.06
-5.49
-7.39
-9.91
-13.05
-16.50
-19.68
-21.80
-22.09
-20.07
-15.76
-9.72
-2.83
3.97
9.94
14.73
18.31
20.86
22.52
23.41
23.57
23.03
21.95
20.55
19.15
18.00
17.22
16.68
16.13
15.30
13.98
12.14
9.91
7.53
5.24
3.21
1.47
-0.06
-1.56
-3.27
-5.37
-7.98
-11.07
-14.39
-17.49
-19.70
-20.33
-18.84
-15.03
-9.23
-2.19
5.08
11.59
16.65
20.02
21.83
22.45
22.29
21.60
20.51
19.04
17.24
15.24
13.30
11.73
10.77
10.44
10.55
10.69
10.42
9.45
7.76
5.60
3.37
1.38
-0.24
-1.60
-2.95
-4.53
-6.50
-8.96
-11.90
-15.21
-18.70
-21.96
-24.42
-25.45
-24.54
-21.55
-16.77
-10.88
-4.73
0.95
5.74
9.53
12.44
14.67
16.35
17.54
18.26
18.53
18.46
18.18
17.82
17.41
16.95
16.41
15.80
15.13
14.36
13.43
12.27
10.85
9.24
7.56
5.95
4.47
3.06
1.56
-0.21
-2.37
-4.92
-7.71
-10.46
-12.79
-14.23
-14.36
-12.88
-9.74
-5.18
0.26
5.90
11.08
15.33
18.41
20.32
21.20
21.23
20.64
19.57
18.18
16.61
14.94
13.28
11.69
10.27
9.14
8.39
8.03
7.95
7.93
7.68
7.02
5.90
4.44
2.80
1.12
-0.59
-2.41
-4.46
-6.76
-9.25
-11.80
-14.26
-16.54
-18.45
-19.74
-20.00
-18.86
-16.18
-12.16
-7.39
-2.60
1.57
4.82
7.14
8.70
9.66
10.04
9.73
8.73
7.18
5.42
3.83
2.67
2.01
1.75
1.69
1.62
1.42
1.00
0.34
-0.58
-1.71
-3.02
-4.40
-5.80
-7.19
-8.56
-9.99
-11.53
-13.21
-15.10
-17.17
-19.36
-21.47
-23.12
-23.83
-23.17
-20.85
-16.91
-11.74
-5.98
-0.33
4.65
8.64
11.61
13.68
15.02
15.76
15.97
15.73
15.12
14.34
13.58
12.98
12.56
12.17
11.60
10.64
9.23
7.47
5.58
3.83
2.36
1.20
0.19
-0.87
-2.17
-3.82
-5.82
-8.08
-10.47
-12.81
-14.83
-16.21
-16.61
-15.79
-13.74
-10.70
-7.15
-3.61
-0.45
2.22
4.50
6.57
8.44
9.87
10.50
10.07
8.57
6.37
4.07
2.29
1.44
1.59
2.51
3.78
4.92
5.54
5.43
4.56
3.11
1.29
-0.63
-2.54
-4.40
-6.36
-8.59
-11.23
-14.29
-17.71
-21.32
-24.81
-27.80
-29.81
-30.40
-29.24
-26.29
-21.82
-16.39
-10.66
-5.20
-0.44
3.43
6.33
8.24
9.15
9.08
8.21
6.85
5.38
4.15
3.38
3.09
3.12
3.19
3.10
2.73
2.09
1.30
0.46
-0.36
-1.16
-2.00
-2.97
-4.13
-5.49
-7.04
-8.76
-10.71
-12.97
-15.54
-18.30
-20.86
-22.67
-23.14
-21.92
-18.96
-14.61
-9.44
-4.07
0.99
5.45
9.11
11.85
13.62
14.48
14.62
14.33
13.95
13.66
13.46
13.21
12.72
11.87
10.72
9.48
8.36
7.55
7.01
6.62
6.11
5.26
3.91
2.03
-0.27
-2.82
-5.37
-7.73
-9.76
-11.46
-12.90
-14.26
-15.68
-17.18
-18.56
-19.41
-19.22
-17.63
-14.56
-10.30
-5.42
-0.58
3.71
7.20
9.87
11.79
13.05
13.68
13.70
13.19
12.33
11.40
10.65
10.26
10.25
10.49
10.82
11.08
11.20
11.19
11.08
10.86
10.46
9.76
8.72
7.35
5.75
4.08
2.49
1.05
-0.25
-1.50
-2.82
-4.37
-6.19
-8.17
-9.97
-11.09
-11.01
-9.40
-6.31
-2.16
2.35
6.57
10.06
12.70
14.61
15.96
16.87
17.32
17.27
16.74
15.84
14.77
13.72
12.83
12.15
11.63
11.13
10.53
9.76
8.81
7.69
6.43
5.04
3.48
1.72
-0.22
-2.24
-4.14
-5.75
-7.01
-8.04
-9.05
-10.23
-11.57
-12.75
-13.27
-12.55
-10.22
-6.19
-0.79
5.39
11.71
17.60
22.81
27.31
31.32
35.10
38.86
42.56
45.90
48.50
50.04
50.55
50.43
50.38
51.12
53.09
56.32
60.35
64.43
67.59
68.78
67.06
61.84
53.18
41.78
28.89
15.97
4.13
-6.23
-15.54
-24.67
-34.46
-45.12
-56.18
-66.41
-74.36
-78.81
-79.35
-76.44
-71.17
-64.63
-57.34
-49.43
-40.71
-31.24
-21.70
-13.37
-7.49
-4.58
-4.01
-4.32
-4.71
-5.08
-5.93
-7.78
-10.70
-14.16
-17.11
-18.39
-17.28
-15.30
-14.60
-16.85
-22.31
-29.96
-38.25
-45.76
-51.44
-54.76
-57.98
-63.54
-72.64
-84.36
-96.34
-106.26
-112.62
-114.95
-113.69
-112.88
-116.75
-127.92
-146.41
-170.67
-199.23
-231.29
-266.31
-285.77
-275.46
-231.85
-165.41
-92.52
-25.54
30.06
73.70
107.18
132.99
150.57
158.94
158.24
150.67
139.75
128.80
120.09
114.91
113.62
113.57
111.65
105.84
96.24
84.68
73.37
64.23
58.51
56.50
56.30
55.40
51.98
45.85
38.11
30.16
22.91
16.77
12.15
9.43
9.71
14.38
24.13
37.71
51.63
61.46
63.91
58.40
46.90
32.76
18.70
5.71
-6.66
-19.14
-30.93
-39.44
-41.43
-34.95
-20.85
-2.95
13.74
25.14
29.91
29.63
27.34
25.67
25.20
25.38
24.72
22.31
18.55
14.82
12.56
12.32
13.50
14.85
15.17
13.79
10.95
7.50
4.49
2.78
2.74
4.10
6.14
7.97
8.88
8.63
7.58
6.39
5.68
5.85
6.98
9.02
11.82
14.76
16.68
16.03
11.37
2.07
-10.99
-25.53
-38.64
-47.87
-52.22
-52.07
-48.87
-43.72
-37.31
-29.71
-21.03
-11.79
-3.10
3.85
8.29
10.24
10.41
9.68
8.80
7.99
7.17
6.07
4.62
3.02
1.63
0.85
0.80
1.40
2.33
3.17
3.61
3.50
2.88
1.93
0.89
-0.07
-0.89
-1.60
-2.32
-3.16
-4.20
-5.45
-6.87
-8.40
-9.97
-11.40
-12.45
-12.80
-12.06
-9.95
-6.40
-1.71
3.55
8.56
12.51
14.80
15.12
13.59
10.56
6.60
2.21
-2.16
-6.20
-9.75
-12.68
-14.96
-16.54
-17.35
-17.40
-16.68
-15.35
-13.67
-11.93
-10.48
-9.55
-9.18
-9.22
-9.40
-9.49
-9.44
-9.40
-9.69
-10.66
-12.60
-15.54
-19.27
-23.35
-27.09
-29.73
-30.52
-28.89
-24.54
-17.59
-8.56
1.75
12.30
22.05
30.12
35.88
39.12
39.91
38.57
35.59
31.52
26.93
22.42
18.56
15.72
14.10
13.50
13.46
13.39
12.81
11.53
9.67
7.51
5.23
2.86
0.16
-3.14
-7.17
-11.91
-17.15
-22.52
-27.56
-31.67
-34.15
-34.32
-31.73
-26.39
-18.92
-10.40
-1.98
5.36
11.06
15.03
17.40
18.37
18.10
16.72
14.40
11.45
8.33
5.59
3.64
2.68
2.47
2.53
2.30
1.43
-0.05
-1.83
-3.54
-4.99
-6.32
-7.90
-10.09
-13.04
-16.71
-20.85
-25.28
-29.72
-33.77
-36.74
-37.73
-35.92
-30.95
-23.15
-13.46
-3.18
6.52
14.88
21.53
26.39
29.46
30.71
30.22
28.29
25.46
22.42
19.84
18.09
17.23
17.04
17.14
17.12
16.66
15.59
13.93
11.88
9.70
7.61
5.69
3.83
1.80
-0.65
-3.74
-7.58
-12.11
-17.03
-21.72
-25.23
-26.48
-24.59
-19.23
-10.85
-0.62
9.95
19.50
27.18
32.69
36.18
37.89
38.02
36.74
34.28
31.06
27.69
24.83
22.90
21.94
21.57
21.14
20.09
18.12
15.33
12.10
8.90
6.08
3.74
1.70
-0.34
-2.70
-5.62
-9.18
-13.36
-17.97
-22.63
-26.69
-29.34
-29.78
-27.45
-22.30
-14.86
-6.15
2.67
10.55
16.90
21.50
24.44
25.88
25.91
24.59
22.02
18.50
14.55
10.80
7.84
5.93
4.94
4.44
3.89
2.88
1.28
-0.78
-3.08
-5.37
-7.52
-9.49
-11.29
-12.98
-14.66
-16.47
-18.63
-21.26
-24.28
-27.24
-29.35
-29.75
-27.71
-23.04
-16.14
-7.87
0.68
8.59
15.28
20.58
24.56
27.26
28.67
28.69
27.33
24.86
21.82
18.90
16.69
15.52
15.32
15.70
16.17
16.34
16.02
15.20
14.02
12.58
10.91
9.00
6.83
4.46
2.03
-0.27
-2.33
-4.20
-6.14
-8.44
-11.18
-14.07
-16.33
-16.95
-15.03
-10.21
-2.83
6.15
15.45
23.97
31.04
36.49
40.51
43.46
45.68
47.42
48.80
49.82
50.48
50.74
50.61
50.18
49.59
49.04
48.71
48.66
48.79
48.75
47.89
45.23
39.65
30.27
16.97
0.76
-16.25
-31.41
-42.41
-48.06
-48.61
-45.49
-40.58
-35.53
-31.44
-28.92
-28.32
-29.87
-33.46
-38.44
-43.39
-46.46
-45.91
-40.81
-31.35
-18.83
-5.16
7.75
18.33
25.52
28.72
27.68
22.63
14.41
4.37
-5.85
-14.76
-21.43
-25.65
-27.81
-28.64
-28.89
-29.32
-30.65
-33.51
-38.31
-44.92
-52.58
-59.98
-65.66
-68.36
-67.58
-63.59
-57.38
-50.38
-44.02
-39.46
-37.40
-37.94
-40.64
-44.54
-48.41
-50.90
-50.82
-47.32
-40.14
-29.72
-17.16
-3.93
8.47
18.96
26.93
32.32
35.44
36.80
37.00
36.54
35.88
35.31
34.98
34.71
34.19
33.24
31.86
30.40
29.24
28.70
28.88
29.72
30.67
31.18
30.99
30.19
29.15
28.16
27.35
26.78
26.48
25.85
24.27
21.58
18.21
14.85
11.94
9.47
7.18
4.86
1.62
-3.02
-8.54
-13.45
-16.13
-15.88
-13.22
-9.54
-6.59
-7.32
-14.35
-28.83
-49.90
-75.39
-102.87
-130.21
-155.62
-169.64
-164.92
-140.75
-104.77
-67.60
-36.58
-14.04
1.24
11.95
20.78
28.13
33.23
35.44
35.24
34.00
33.10
33.35
34.93
37.50
39.53
39.54
37.09
33.07
29.02
26.18
25.02
25.35
26.66
27.74
27.56
25.83
23.10
20.37
18.43
17.57
17.68
18.42
19.14
19.29
18.68
17.62
16.61
16.03
16.05
16.61
17.57
18.65
19.60
20.37
21.00
21.65
22.41
23.19
23.87
24.29
24.27
23.66
22.32
20.26
17.54
14.26
10.58
6.72
2.93
-0.53
-3.46
-5.76
-7.40
-8.47
-9.07
-9.39
-9.55
-9.62
-9.58
-9.41
-9.14
-8.81
-8.48
-8.17
-8.05
-8.11
-8.20
-8.09
-7.61
-6.74
-5.58
-4.25
-2.79
-1.56
-0.56
0.51
2.01
4.18
6.96
9.98
12.80
15.13
16.14
15.79
14.45
12.78
11.34
10.45
10.02
9.80
9.42
7.40
2.83
-4.50
-13.96
-24.07
-33.03
-39.64
-44.47
-42.96
-35.80
-25.44
-14.84
-6.26
-0.55
2.75
4.73
6.43
8.40
9.70
9.68
8.20
5.67
2.85
0.52
-0.71
-0.51
1.34
4.03
6.99
9.67
11.60
12.51
12.38
11.51
10.42
9.72
9.33
9.20
9.26
9.52
10.05
10.94
12.14
13.55
15.01
16.21
17.06
17.64
18.08
18.54
19.05
19.63
20.25
20.91
21.42
21.53
20.99
19.58
17.24
14.18
10.84
7.90
6.06
5.75
7.02
9.35
11.95
13.93
14.77
14.40
13.22
12.00
11.46
12.11
13.96
16.58
19.11
20.54
19.97
16.95
11.67
4.95
-2.11
-8.53
-13.79
-17.97
-21.44
-24.79
-28.63
-33.29
-38.79
-44.88
-51.27
-57.84
-64.62
-71.52
-78.41
-85.06
-91.10
-96.10
-99.82
-102.45
-104.84
-108.15
-113.06
-119.71
-127.64
-135.94
-143.43
-149.25
-153.44
-157.06
-161.76
-168.16
-176.62
-187.60
-201.25
-216.40
-230.43
-240.00
-241.99
-234.47
-215.32
-185.03
-147.46
-107.95
-70.11
-34.43
0.85
38.10
78.37
123.38
171.26
215.11
246.10
258.47
251.73
230.01
200.42
171.10
153.67
156.31
179.75
218.60
266.11
316.38
364.60
407.01
414.63
372.60
294.44
208.48
133.33
73.81
28.41
-5.77
-31.38
-50.87
-62.39
-65.08
-62.02
-58.42
-57.56
-59.77
-63.96
-68.92
-74.10
-76.25
-73.50
-67.46
-61.75
-58.75
-58.75
-60.95
-64.39
-68.49
-70.97
-70.42
-67.69
-64.94
-63.55
-63.61
-64.43
-65.22
-65.44
-63.64
-59.03
-52.13
-44.34
-36.88
-30.44
-25.38
-21.87
-20.11
-19.48
-19.55
-20.25
-21.83
-24.47
-28.23
-33.07
-38.90
-45.67
-52.73
-59.65
-66.07
-71.88
-77.13
-82.07
-86.92
-91.86
-96.96
-101.48
-104.82
-106.55
-106.46
-104.49
-100.51
-94.01
-83.59
-71.90
-59.31
-45.81
-31.28
-15.53
1.64
20.30
40.01
59.59
77.09
91.04
100.31
104.86
105.86
105.23
104.73
105.23
106.47
107.49
107.84
107.47
106.64
105.58
104.11
101.53
97.03
90.20
81.43
72.14
63.99
58.33
55.72
55.81
57.43
59.11
59.47
57.62
53.48
47.48
40.36
32.77
25.10
17.32
9.11
0.07
-10.11
-21.50
-33.87
-46.72
-59.15
-69.94
-77.62
-80.74
-78.33
-70.27
-57.50
-41.92
-25.85
-11.34
0.34
8.95
14.96
19.08
21.83
23.35
23.59
22.66
21.04
19.62
19.38
21.09
25.00
30.86
38.07
45.91
53.64
60.57
66.00
69.21
69.60
66.81
60.88
52.32
42.06
31.28
21.11
12.38
5.37
-0.30
-5.57
-11.61
-19.37
-29.04
-39.79
-49.82
-56.89
-59.06
-55.38
-46.23
-33.13
-18.15
-3.27
10.16
21.43
30.41
37.13
41.68
44.18
44.80
43.88
41.89
39.38
36.84
34.61
32.93
31.83
31.20
30.74
30.07
28.78
26.56
23.32
19.18
14.52
9.82
5.48
1.70
-1.56
-4.62
-7.85
-11.61
-16.07
-21.19
-26.71
-32.07
-36.47
-38.88
-38.34
-34.20
-26.41
-15.71
-3.40
8.98
20.11
29.20
35.99
40.62
43.39
44.54
44.28
42.79
40.29
37.04
33.26
29.12
24.75
20.36
16.20
12.51
9.45
7.00
4.94
2.96
0.80
-1.64
-4.24
-6.83
-9.29
-11.63
-13.97
-16.45
-19.30
-22.71
-26.98
-32.28
-38.48
-44.86
-50.06
-52.41
-50.47
-43.73
-32.81
-19.38
-5.47
7.18
17.60
25.59
31.37
35.21
37.22
37.51
36.38
34.42
32.40
30.90
30.16
29.93
29.80
29.35
28.52
27.47
26.49
25.79
25.28
24.71
23.77
22.21
19.91
16.86
13.13
8.87
4.37
0.00
-3.87
-7.03
-9.52
-11.76
-14.36
-17.89
-22.53
-27.82
-32.74
-35.91
-36.16
-32.92
-26.44
-17.70
-8.07
1.17
9.18
15.58
20.39
23.73
25.73
26.48
26.13
24.99
23.52
22.17
21.27
20.91
20.96
21.16
21.23
21.00
20.44
19.64
18.79
17.96
17.11
16.01
14.36
11.92
8.65
4.79
0.71
-3.24
-6.89
-10.28
-13.60
-17.07
-20.81
-24.85
-29.09
-33.30
-37.00
-39.46
-39.82
-37.42
-32.07
-24.19
-14.81
-5.23
3.39
10.27
15.15
18.14
19.56
19.72
19.01
17.76
16.35
15.10
14.22
13.77
13.61
13.58
13.51
13.33
13.07
12.86
12.81
12.92
13.10
13.17
12.89
12.02
10.36
7.82
4.45
0.49
-3.82
-8.20
-12.49
-16.73
-21.02
-25.36
-29.50
-32.84
-34.57
-33.95
-30.62
-24.82
-17.36
-9.38
-1.94
4.20
8.68
11.44
12.63
12.45
11.13
9.00
6.48
4.03
2.04
0.67
-0.10
-0.46
-0.57
-0.58
-0.58
-0.65
-0.94
-1.57
-2.59
-3.89
-5.27
-6.55
-7.74
-9.04
-10.68
-12.91
-15.74
-19.00
-22.42
-25.71
-28.52
-30.44
-30.94
-29.43
-25.53
-19.24
-11.11
-2.06
6.80
14.56
20.68
25.10
28.12
30.21
31.81
33.15
34.22
34.74
34.29
32.45
29.07
24.34
18.92
13.68
9.42
6.58
5.00
4.02
2.73
0.24
-3.98
-10.04
-17.59
-25.97
-34.39
-42.02
-48.15
-52.42
-54.85
-55.89
-56.23
-56.40
-56.50
-56.15
-54.68
-51.51
-46.64
-40.69
-34.67
-29.56
-25.84
-23.36
-21.59
-19.89
-17.87
-15.51
-13.05
-10.73
-8.74
-7.04
-5.48
-3.94
-2.37
-0.79
0.64
1.76
2.39
2.36
1.58
-0.01
-2.36
-5.31
-8.54
-11.63
-14.13
-15.65
-16.07
-15.58
-14.60
-13.72
-13.45
-13.96
-15.02
-16.03
-16.16
-14.70
-11.27
-6.04
0.36
7.01
13.03
17.78
20.92
22.44
22.55
21.58
19.99
18.15
16.46
15.13
14.28
13.87
13.76
13.83
13.97
14.16
14.40
14.63
14.70
14.37
13.37
11.52
8.78
5.31
1.41
-2.61
-6.44
-9.90
-12.98
-15.82
-18.70
-21.91
-25.59
-29.43
-32.72
-34.42
-33.52
-29.51
-22.61
-13.79
-4.45
4.06
10.80
15.40
17.96
18.87
18.54
17.30
15.47
13.34
11.29
9.64
8.67
8.40
8.70
9.25
9.71
9.80
9.43
8.67
7.67
6.58
5.44
4.22
2.85
1.29
-0.40
-2.09
-3.64
-5.05
-6.52
-8.37
-10.91
-14.17
-17.73
-20.74
-22.13
-20.99
-16.94
-10.36
-2.31
5.81
12.69
17.57
20.30
21.26
20.97
19.90
18.24
16.00
13.20
9.98
6.73
3.91
1.92
0.97
0.96
1.54
2.25
2.62
2.28
1.10
-0.83
-3.25
-5.80
-8.25
-10.51
-12.67
-14.93
-17.53
-20.55
-23.90
-27.33
-30.36
-32.47
-33.12
-31.89
-28.61
-23.46
-16.98
-9.90
-3.02
3.04
7.93
11.51
13.80
14.82
14.61
13.22
10.85
7.91
4.91
2.37
0.62
-0.29
-0.61
-0.75
-1.11
-2.00
-3.44
-5.29
-7.27
-9.12
-10.68
-11.98
-13.19
-14.53
-16.25
-18.46
-21.22
-24.48
-28.12
-31.83
-35.10
-37.19
-37.33
-34.97
-29.97
-22.76
-14.14
-5.12
3.40
10.78
16.63
20.87
23.60
25.13
25.85
26.22
26.63
27.24
28.02
28.74
29.14
29.02
28.26
26.79
24.62
21.83
18.60
15.19
11.93
9.01
6.42
3.90
1.08
-2.31
-6.32
-10.76
-15.33
-19.77
-23.95
-27.77
-31.00
-33.07
-33.29
-30.99
-25.89
-18.34
-9.24
0.25
9.01
16.30
21.91
25.95
28.66
30.25
30.80
30.34
28.97
26.95
24.66
22.48
20.67
19.28
18.18
17.17
16.14
15.07
14.03
13.07
12.07
10.87
9.36
7.53
5.53
3.59
1.88
0.45
-0.83
-2.23
-4.05
-6.56
-9.87
-13.87
-18.13
-21.88
-24.19
-24.26
-21.68
-16.63
-9.82
-2.25
5.03
11.32
16.20
19.61
21.64
22.46
22.24
21.27
19.87
18.42
17.19
16.31
15.75
15.33
14.90
14.38
13.78
13.17
12.58
11.93
11.11
10.02
8.61
6.87
4.85
2.56
0.08
-2.53
-5.20
-7.87
-10.47
-12.91
-14.94
-16.07
-15.62
-12.92
-7.53
0.43
10.21
20.60
30.22
37.89
42.83
44.79
43.93
40.73
35.70
29.24
21.62
12.97
3.42
-6.84
-17.45
-27.93
-37.73
-46.32
-53.21
-57.94
-60.25
-60.05
-57.59
-53.53
-48.78
-44.32
-41.01
-39.38
-39.68
-41.90
-45.86
-51.22
-57.39
-63.33
-67.63
-68.68
-65.18
-56.68
-43.96
-28.97
-14.24
-2.13
5.97
9.98
10.90
10.22
9.31
8.99
9.55
11.02
13.33
16.49
20.43
24.88
29.31
33.01
35.30
35.81
34.54
31.88
28.43
24.77
21.31
18.22
15.49
13.11
11.04
9.31
7.82
6.35
4.58
2.15
-1.21
-5.53
-10.49
-15.47
-19.64
-22.11
-22.17
-19.46
-14.17
-7.05
0.80
8.20
14.27
18.64
21.40
22.88
23.37
22.98
21.70
19.62
17.04
14.45
12.43
11.43
11.54
12.60
14.28
16.24
18.21
19.93
21.09
21.37
20.49
18.30
14.96
10.87
6.58
2.58
-0.80
-3.56
-5.95
-8.46
-11.59
-15.62
-20.50
-25.72
-30.39
-33.40
-33.77
-30.95
-25.12
-17.13
-8.28
0.07
6.90
11.77
14.78
16.37
17.00
16.97
16.35
15.17
13.53
11.65
9.85
8.38
7.31
6.49
5.71
4.80
3.80
2.86
2.14
1.63
1.09
0.14
-1.58
-4.22
-7.55
-11.07
-14.24
-16.66
-18.34
-19.70
-21.44
-24.15
-28.01
-32.44
-36.21
-37.74
-35.70
-29.53
-19.77
-7.97
3.79
13.52
19.89
22.48
21.77
18.86
15.06
11.55
9.16
8.26
8.70
9.96
11.11
11.06
8.89
4.18
-2.55
-9.81
-15.50
-17.62
-15.11
-8.35
0.87
9.94
16.23
17.93
14.42
6.27
-5.00
-17.43
-28.93
-37.66
-42.32
-42.52
-38.77
-32.44
-25.43
-19.68
-16.56
-16.38
-18.21
-20.02
-19.46
-14.68
-5.24
7.64
21.34
32.88
39.86
41.32
37.88
31.29
23.73
17.05
12.34
9.85
9.03
8.87
8.20
6.16
2.43
-2.51
-7.65
-11.80
-14.00
-13.89
-11.78
-8.55
-5.35
-3.46
-3.88
-7.16
-13.18
-20.91
-28.66
-34.47
-36.71
-34.67
-28.73
-20.13
-10.47
-1.26
6.45
12.09
15.50
16.90
16.76
15.71
14.48
13.62
13.35
13.61
14.19
14.98
15.96
17.20
18.68
20.19
21.30
21.52
20.52
18.25
14.93
11.04
7.02
3.25
-0.15
-3.22
-6.15
-9.08
-12.08
-15.08
-17.96
-20.59
-22.87
-24.64
-25.62
-25.46
-23.78
-20.44
-15.74
-10.38
-5.37
-1.61
0.38
0.64
-0.36
-1.91
-3.35
-4.27
-4.44
-3.82
-2.44
-0.39
2.15
4.93
7.72
10.38
12.98
15.78
19.03
22.78
26.91
31.10
35.07
38.75
42.20
45.52
48.72
51.62
53.83
54.94
54.57
52.57
49.10
44.59
39.69
35.11
31.41
28.83
27.25
26.39
25.98
25.93
26.34
27.32
28.79
30.34
31.32
31.09
29.23
25.77
21.15
16.11
11.46
7.83
5.40
3.97
2.99
1.81
-0.11
-3.01
-6.83
-11.27
-16.00
-20.72
-25.36
-30.01
-34.94
-40.47
-46.81
-53.91
-61.20
-67.64
-71.87
-72.68
-69.45
-62.45
-52.72
-41.70
-30.69
-20.52
-11.56
-3.92
2.18
6.31
7.95
6.89
3.45
-1.36
-6.26
-10.08
-12.14
-12.42
-11.36
-9.50
-7.28
-4.93
-2.56
-0.38
1.22
1.86
1.28
-0.47
-2.95
-5.55
-7.74
-9.28
-10.25
-11.03
-12.05
-13.51
-15.35
-17.05
-17.86
-16.99
-13.91
-8.53
-1.30
6.94
15.22
22.61
28.51
32.62
34.91
35.55
34.71
32.62
29.56
25.91
22.13
18.76
16.24
14.74
14.10
13.88
13.47
12.37
10.35
7.54
4.31
1.11
-1.72
-4.10
-6.16
-8.13
-10.12
-12.18
-14.27
-16.48
-19.07
-22.30
-26.16
-30.18
-33.32
-34.26
-31.95
-26.07
-17.30
-7.01
3.14
11.83
18.33
22.55
24.80
25.49
24.93
23.32
20.79
17.51
13.76
9.95
6.50
3.79
1.99
1.10
0.88
0.97
1.01
0.68
-0.19
-1.66
-3.78
-6.44
-9.34
-12.04
-14.04
-15.08
-15.30
-15.28
-15.79
-17.36
-19.94
-22.87
-25.09
-25.59
-23.77
-19.55
-13.30
-5.69
2.56
10.73
18.13
24.11
28.15
29.97
29.63
27.56
24.45
21.12
18.41
16.83
16.29
16.30
16.13
15.33
13.83
12.01
10.55
10.11
10.82
12.05
12.62
11.59
8.83
5.01
1.34
-1.02
-1.34
0.06
1.86
2.40
0.90
-2.01
-4.67
-5.24
-2.62
3.32
11.31
19.05
23.89
23.76
17.47
4.10
-17.18
-46.52
-80.03
-109.35
-124.77
-121.65
-103.24
-77.44
-52.28
-32.80
-20.07
-12.13
-6.32
-1.42
1.95
2.46
-0.08
-4.48
-8.59
-10.38
-8.82
-4.56
0.31
3.33
2.77
-1.37
-7.93
-14.79
-19.43
-19.36
-13.03
-0.67
15.57
32.30
46.41
55.89
60.54
61.54
60.71
59.39
57.90
56.19
53.37
49.47
44.96
40.42
35.95
31.21
25.65
18.88
11.03
2.70
-4.95
-10.84
-14.36
-15.52
-14.86
-13.39
-12.20
-12.06
-13.10
-14.51
-14.81
-12.50
-6.64
2.51
13.38
23.59
30.80
33.66
32.25
27.87
22.23
16.76
12.08
8.13
4.52
0.99
-2.39
-5.34
-7.11
-7.44
-6.59
-5.27
-4.30
-4.25
-5.28
-7.09
-9.07
-10.72
-11.92
-12.95
-14.33
-16.46
-19.43
-22.97
-26.68
-30.25
-33.65
-36.97
-40.01
-41.98
-41.53
-37.21
-28.24
-15.07
0.57
16.15
29.33
38.65
43.84
45.48
44.47
41.49
36.90
31.00
24.27
17.57
11.89
8.03
6.22
6.10
6.85
7.62
7.77
7.02
5.40
3.07
0.16
-3.28
-7.19
-11.50
-15.99
-20.43
-24.58
-28.42
-32.12
-36.15
-41.07
-47.30
-54.67
-62.16
-67.93
-69.81
-66.09
-56.24
-41.37
-23.99
-7.21
6.31
15.19
19.46
20.21
18.83
16.39
13.37
9.79
5.66
1.31
-2.55
-5.14
-5.96
-4.96
-2.58
0.60
4.02
7.43
10.88
14.49
18.18
21.67
24.87
28.18
32.53
38.72
46.75
55.22
61.14
60.82
51.49
33.12
8.84
-16.04
-36.44
-49.37
-54.89
-55.88
-55.90
-57.17
-59.02
-58.72
-53.13
-41.24
-24.20
-4.47
15.50
34.91
53.88
71.01
83.43
89.67
89.74
85.51
79.44
72.67
65.76
53.98
32.53
-1.56
-46.89
-99.13
-152.11
-193.03
-211.28
-204.66
-179.64
-145.02
-107.03
-66.97
-27.14
13.88
54.14
89.38
116.55
136.04
152.25
161.79
165.17
162.04
151.23
131.15
101.75
66.02
29.15
-3.42
-28.75
-45.88
-56.89
-64.07
-68.49
-69.52
-65.66
-56.26
-42.46
-27.23
-12.87
-1.03
8.39
16.25
23.29
29.46
33.92
35.77
34.78
32.47
30.34
29.14
27.82
23.89
14.67
-0.94
-21.40
-42.88
-60.18
-69.77
-70.15
-62.65
-50.39
-36.95
-24.97
-15.63
-8.96
-4.33
-1.25
0.64
1.48
1.62
1.54
1.72
2.46
3.57
4.46
4.43
3.03
0.28
-3.27
-6.70
-9.16
-10.25
-10.33
-10.18
-10.75
-12.47
-15.10
-17.79
-19.51
-19.62
-18.32
-16.70
-16.32
-18.65
-24.29
-32.79
-42.74
-52.02
-58.62
-61.31
-60.11
-56.22
-51.88
-49.63
-51.62
-58.63
-69.08
-78.75
-81.60
-71.69
-45.69
-4.91
44.59
93.86
134.23
160.28
171.00
169.12
158.95
144.41
128.07
111.36
95.33
81.11
69.68
61.25
54.97
49.22
42.36
33.43
22.61
11.01
0.07
-9.14
-16.63
-23.60
-32.11
-43.96
-59.56
-77.14
-92.92
-102.41
-102.19
-91.42
-72.31
-49.25
-27.09
-9.51
1.86
7.24
7.90
5.30
0.71
-4.73
-9.88
-13.48
-14.56
-12.79
-8.63
-3.11
2.64
7.82
12.14
15.65
18.39
20.20
20.74
19.78
17.51
14.52
11.74
10.05
9.99
11.60
14.58
18.47
22.99
28.05
33.69
39.89
46.66
54.10
62.47
71.91
81.86
90.38
94.00
88.40
70.06
38.19
-4.15
-50.28
-91.80
-121.38
-135.19
-133.80
-121.41
-103.69
-85.49
-69.48
-56.03
-44.27
-33.38
-23.35
-14.85
-8.58
-4.59
-2.17
-0.39
1.17
2.14
1.69
-0.66
-4.35
-7.86
-9.42
-7.88
-3.05
4.56
14.55
27.34
44.19
66.63
95.31
129.08
164.81
198.07
224.20
239.50
241.97
231.81
211.43
184.89
156.45
129.40
105.00
82.41
59.42
33.59
3.57
-30.08
-64.94
-98.19
-127.22
-150.11
-165.72
-173.46
-173.59
-167.33
-156.79
-144.40
-132.85
-124.11
-118.45
-115.02
-112.86
-112.35
-115.59
-125.37
-138.10
-148.22
-150.60
-143.41
-129.21
-111.35
-90.98
-66.09
-32.54
13.02
68.82
130.07
189.35
239.07
274.73
295.06
300.61
292.49
271.89
239.80
190.36
125.08
50.30
-25.00
-92.97
-149.52
-194.51
-230.12
-248.63
-245.23
-221.19
-184.75
-145.00
-107.84
-75.64
-48.64
-26.13
-7.32
6.97
16.46
21.54
23.67
24.66
25.87
28.08
31.53
35.92
39.70
41.65
41.21
38.80
35.20
31.22
27.14
22.82
17.76
11.14
2.76
-6.80
-16.31
-24.71
-31.95
-38.80
-45.92
-53.22
-58.92
-60.28
-54.68
-41.03
-20.20
4.83
30.71
56.32
78.10
94.34
104.85
110.00
110.06
105.89
98.83
91.50
86.58
84.80
85.04
83.20
74.83
57.01
30.46
-1.00
-31.05
-54.02
-67.74
-73.48
-75.00
-75.87
-77.75
-74.53
-62.36
-39.71
-9.24
22.29
47.11
59.60
58.55
46.95
30.18
12.25
-4.69
-20.38
-35.35
-49.10
-59.87
-65.40
-64.34
-56.83
-45.11
-31.92
-19.74
-10.36
-4.62
-2.64
-4.03
-8.21
-14.54
-22.77
-32.34
-42.24
-50.90
-56.34
-56.80
-51.47
-41.01
-27.41
-13.59
-2.15
5.32
8.31
7.25
3.03
-3.27
-10.48
-17.38
-22.97
-26.58
-28.03
-27.71
-26.32
-24.54
-22.74
-20.94
-18.95
-16.64
-14.06
-11.46
-9.19
-7.54
-6.65
-6.50
-6.99
-7.89
-8.82
-9.11
-7.89
-4.37
1.88
10.49
20.22
29.23
35.79
38.86
38.49
35.61
31.60
27.72
24.84
23.49
24.03
26.79
31.76
38.32
45.24
51.10
55.32
58.76
63.80
73.31
89.07
110.30
133.21
151.78
159.57
151.93
127.53
88.98
42.14
-5.50
-46.79
-76.69
-93.05
-96.64
-90.27
-77.72
-62.69
-48.34
-37.10
-30.72
-30.24
-35.71
-46.08
-59.34
-73.01
-84.78
-93.03
-97.15
-97.40
-94.63
-89.92
-84.18
-78.01
-71.59
-64.95
-58.22
-51.91
-46.94
-44.38
-44.93
-48.43
-53.64
-58.48
-60.78
-59.05
-53.02
-43.69
-32.94
-22.70
-14.53
-9.20
-6.77
-6.80
-8.70
-11.90
-15.86
-20.18
-24.50
-28.49
-31.96
-34.82
-37.18
-39.23
-41.22
-43.40
-46.01
-49.13
-52.94
-57.63
-63.16
-68.99
-73.90
-76.11
-73.67
-65.03
-49.34
-27.10
-0.13
28.72
56.15
79.15
95.58
104.66
106.92
104.33
99.15
92.94
86.27
78.83
70.09
59.87
48.68
37.64
28.95
24.10
23.04
24.50
27.07
30.09
33.67
38.10
43.35
50.54
59.49
68.34
74.66
77.27
76.92
75.41
74.22
73.60
75.60
80.52
86.51
91.00
93.03
94.01
96.41
102.17
111.80
128.25
152.15
180.67
209.05
234.05
255.59
275.81
297.37
296.46
260.72
196.11
121.53
52.56
-4.51
-49.18
-82.96
-107.82
-125.83
-135.04
-134.89
-128.05
-119.99
-115.61
-117.26
-124.65
-135.69
-147.71
-155.44
-155.25
-146.89
-133.15
-117.41
-102.41
-90.64
-84.82
-87.22
-97.37
-113.31
-130.35
-143.75
-149.48
-145.69
-133.25
-115.49
-96.17
-77.92
-62.24
-50.07
-42.53
-40.16
-41.76
-43.77
-40.84
-27.45
-0.85
37.17
80.33
119.73
147.52
159.83
157.51
140.96
117.92
94.07
71.84
51.62
33.27
17.39
5.26
-2.19
-5.25
-4.85
-3.44
-3.45
-5.90
-10.44
-15.81
-20.35
-22.79
-22.49
-19.14
-13.91
-8.59
-5.19
-5.32
-9.64
-17.53
-27.25
-36.57
-43.19
-46.17
-45.68
-42.49
-37.44
-31.14
-23.96
-16.41
-9.35
-3.76
-0.67
-0.57
-3.12
-7.34
-12.04
-16.21
-19.37
-21.55
-23.03
-24.13
-25.11
-26.05
-26.88
-27.46
-27.62
-27.22
-26.08
-24.91
-23.98
-23.42
-23.19
-23.18
-23.31
-23.59
-24.34
-25.95
-28.76
-32.60
-36.84
-40.35
-41.79
-39.96
-34.17
-24.53
-11.84
2.61
17.46
31.51
43.90
54.17
62.15
67.86
71.40
72.85
72.41
70.43
67.46
64.12
60.95
58.27
56.06
54.05
51.94
49.52
46.83
43.99
41.08
38.00
34.49
30.27
25.26
19.60
13.70
7.92
2.49
-2.59
-7.56
-12.75
-18.50
-25.02
-32.30
-39.89
-46.93
-52.13
-54.12
-51.87
-45.17
-34.75
-22.17
-9.26
2.34
11.63
18.24
22.20
23.70
22.86
19.85
14.96
8.70
1.78
-5.02
-10.94
-15.38
-17.89
-18.23
-16.46
-13.04
-8.82
-4.84
-2.04
-0.87
-1.20
-2.49
-4.04
-5.41
-6.53
-7.63
-8.96
-10.68
-12.84
-15.49
-18.80
-22.97
-28.01
-33.50
-38.55
-41.91
-42.42
-39.43
-33.10
-24.28
-14.27
-4.27
4.92
13.01
20.10
26.42
32.02
36.80
40.55
43.13
44.63
45.44
46.04
46.88
48.24
50.09
52.18
54.13
55.66
56.58
56.96
57.03
57.04
57.17
57.40
57.52
57.18
56.11
54.12
51.21
47.47
43.03
37.97
32.32
26.09
19.27
11.83
3.74
-5.03
-14.39
-23.92
-32.76
-39.70
-43.39
-42.90
-38.08
-29.73
-19.27
-8.27
2.06
11.18
19.06
25.83
31.50
35.86
38.65
39.86
39.81
39.07
38.12
37.22
36.23
34.85
32.84
30.12
26.86
23.27
19.52
15.61
11.46
6.89
1.70
-4.24
-10.93
-18.25
-25.86
-33.31
-40.23
-46.34
-51.60
-56.02
-59.63
-62.45
-64.61
-66.39
-68.29
-70.79
-74.09
-77.93
-81.62
-84.23
-84.97
-83.31
-79.01
-72.07
-62.70
-51.38
-38.92
-26.40
-14.97
-5.56
1.48
6.34
9.62
11.97
13.91
15.72
17.46
19.12
20.62
21.91
22.89
23.47
23.60
23.33
22.78
22.03
21.12
20.04
18.77
17.32
15.82
14.44
13.32
12.55
12.14
12.05
12.19
12.40
12.37
11.70
10.08
7.48
4.33
1.48
-0.03
0.60
3.69
8.94
15.53
22.39
28.47
32.91
35.12
34.91
32.41
28.17
23.07
18.13
14.25
12.00
11.43
12.13
13.47
14.78
15.65
16.01
16.08
16.15
16.41
16.76
16.85
16.24
14.59
11.92
8.55
5.02
1.81
-0.79
-2.79
-4.29
-5.54
-6.88
-8.90
-12.42
-18.36
-27.24
-38.73
-51.44
-63.13
-71.42
-74.64
-72.46
-65.95
-57.19
-48.39
-41.20
-36.41
-33.91
-33.07
-33.14
-33.54
-34.00
-34.55
-35.29
-36.31
-37.54
-38.76
-39.73
-40.16
-39.79
-38.34
-35.50
-31.01
-24.75
-16.93
-8.15
0.67
8.52
14.61
18.53
20.33
20.36
19.04
16.70
13.55
9.59
4.80
-0.88
-7.38
-14.43
-21.39
-27.30
-30.99
-31.40
-28.03
-21.17
-11.97
-2.05
7.04
14.24
19.15
21.89
22.75
21.96
19.64
16.00
11.55
7.14
3.61
1.48
0.71
0.77
1.03
1.16
1.26
1.84
3.37
5.93
9.13
12.21
14.37
15.04
14.05
11.55
7.85
3.37
-1.48
-6.23
-10.33
-13.12
-13.96
-12.38
-8.25
-1.91
5.83
13.86
21.07
26.65
30.25
31.94
32.05
30.90
28.78
25.88
22.47
18.95
15.79
13.38
11.89
11.15
10.75
10.24
9.26
7.71
5.73
3.68
1.92
0.74
0.21
0.19
0.33
0.27
-0.28
-1.38
-2.93
-4.77
-6.72
-8.67
-10.43
-11.70
-12.01
-10.94
-8.29
-4.27
0.53
5.43
9.87
13.62
16.82
19.70
22.43
24.95
27.07
28.59
29.53
30.14
30.67
31.33
32.10
32.80
33.19
33.09
32.45
31.38
29.96
28.27
26.37
24.26
21.95
19.41
16.62
13.53
10.09
6.19
1.68
-3.65
-10.01
-17.46
-25.75
-34.23
-41.96
-48.01
-51.82
-53.38
-53.22
-52.16
-50.88
-49.69
-48.51
-47.07
-45.13
-42.65
-39.77
-36.67
-33.53
-30.47
-27.60
-25.02
-22.84
-21.05
-19.60
-18.46
-17.66
-17.36
-17.74
-18.77
-20.10
-21.07
-21.01
-19.52
-16.73
-13.17
-9.57
-6.49
-4.13
-2.26
-0.42
1.95
5.31
9.99
16.06
23.41
31.67
40.30
48.71
56.39
62.95
68.25
72.27
75.07
76.73
77.30
76.88
75.62
73.84
71.90
70.19
68.94
68.13
67.39
66.11
63.62
59.32
52.94
44.54
34.58
23.77
12.94
2.77
-6.38
-14.57
-22.18
-29.68
-37.26
-44.64
-51.13
-55.90
-58.40
-58.74
-57.75
-56.69
-56.77
-58.66
-62.25
-66.73
-71.06
-74.40
-76.45
-77.46
-77.94
-78.28
-78.46
-78.07
-76.55
-73.59
-69.27
-64.10
-58.75
-53.67
-48.86
-43.89
-38.16
-31.17
-22.88
-13.66
-4.24
4.63
12.33
18.55
23.21
26.47
28.67
30.31
32.06
34.63
38.60
44.23
51.38
59.50
67.89
75.73
82.32
87.09
89.63
89.66
87.08
82.05
75.01
66.77
58.31
50.62
44.37
39.73
36.31
33.28
29.82
25.38
19.92
13.84
7.76
2.14
-2.83
-7.28
-11.43
-15.46
-19.44
-23.38
-27.32
-31.37
-35.56
-39.65
-43.06
-45.00
-44.73
-41.98
-37.13
-31.13
-25.07
-19.80
-15.62
-12.28
-9.31
-6.33
-3.29
-0.41
2.03
3.92
5.36
6.68
8.16
9.88
11.71
13.37
14.60
15.26
15.34
14.99
14.38
13.62
12.74
11.66
10.27
8.50
6.38
4.04
1.61
-0.80
-3.20
-5.64
-7.95
-9.76
-10.46
-9.42
-6.31
-1.32
4.88
11.35
17.16
21.73
24.83
26.49
26.88
26.13
24.32
21.50
17.88
13.82
9.79
6.25
3.48
1.55
0.23
-0.86
-2.10
-3.74
-5.82
-8.16
-10.47
-12.47
-13.99
-15.07
-15.91
-16.73
-17.76
-19.08
-20.63
-22.32
-24.05
-25.78
-27.40
-28.70
-29.26
-28.56
-26.17
-21.93
-16.12
-9.37
-2.48
3.81
9.03
13.01
15.78
17.49
18.28
18.29
17.66
16.71
15.82
15.37
15.57
16.27
17.02
17.21
16.36
14.36
11.45
8.17
4.98
2.13
-0.43
-2.90
-5.36
-7.80
-10.04
-11.97
-13.69
-15.49
-17.70
-20.53
-23.82
-27.10
-29.67
-30.73
-29.71
-26.40
-21.04
-14.31
-7.16
-0.56
4.68
8.13
9.78
9.94
9.09
7.79
6.62
6.04
6.36
7.61
9.44
11.20
12.16
11.77
9.97
7.28
4.53
2.56
1.90
2.53
4.04
5.75
7.03
7.34
6.40
4.14
0.76
-3.23
-7.00
-9.52
-9.79
-7.26
-2.10
4.76
11.78
17.36
20.37
20.48
18.15
14.18
9.22
3.42
-3.51
-12.00
-22.09
-33.14
-43.92
-52.97
-59.12
-61.83
-61.25
-58.05
-53.11
-47.30
-41.29
-35.55
-30.41
-26.05
-22.62
-20.13
-18.52
-17.63
-17.32
-17.40
-17.76
-18.25
-18.70
-18.78
-18.16
-16.50
-13.66
-9.72
-5.01
0.03
4.91
9.21
12.60
14.82
15.78
15.54
14.38
12.73
11.15
10.08
9.74
10.04
10.63
11.08
11.04
10.35
9.03
7.23
5.14
2.92
0.67
-1.60
-3.90
-6.27
-8.72
-11.21
-13.68
-16.08
-18.29
-20.14
-21.39
-21.68
-20.69
-18.24
-14.45
-9.68
-4.48
0.63
5.34
9.50
13.11
16.13
18.45
19.94
20.56
20.39
19.70
18.82
18.07
17.58
17.34
17.16
16.82
16.16
15.18
14.03
12.97
12.23
11.85
11.70
11.46
10.83
9.58
7.72
5.48
3.26
1.45
0.43
0.45
1.68
4.21
8.05
13.04
18.82
24.86
30.56
35.36
38.96
41.29
42.49
42.76
42.26
40.99
38.92
35.99
32.25
27.84
22.91
17.68
12.27
6.80
1.33
-4.08
-9.33
-14.27
-18.73
-22.60
-25.87
-28.70
-31.36
-34.16
-37.27
-40.62
-43.99
-46.96
-49.12
-50.10
-49.58
-47.30
-43.25
-37.61
-30.92
-23.95
-17.44
-11.96
-7.70
-4.50
-2.00
0.19
2.32
4.49
6.68
8.75
10.53
11.81
12.40
12.26
11.50
10.34
9.04
7.78
6.55
5.26
3.67
1.66
-0.69
-3.14
-5.32
-6.83
-7.28
-6.36
-3.95
-0.21
4.40
9.29
13.70
16.97
18.59
18.49
16.97
14.78
12.65
11.31
11.21
12.20
13.52
14.17
13.56
11.77
9.76
8.36
8.16
9.19
10.60
11.02
9.51
6.30
2.89
1.74
4.27
10.86
20.80
32.22
42.60
50.12
54.56
57.38
61.39
68.00
77.37
88.40
98.13
102.18
96.43
78.53
48.66
10.05
-34.06
-79.88
-119.08
-141.62
-141.17
-119.81
-87.12
-59.60
-40.40
-28.25
-19.90
-12.50
-2.50
10.84
26.80
43.46
58.50
70.49
77.33
78.61
74.64
66.46
55.19
41.39
23.90
1.12
-26.75
-57.87
-86.49
-107.01
-115.22
-110.35
-95.82
-79.26
-68.73
-69.16
-81.59
-101.84
-126.62
-153.79
-182.58
-202.33
-203.43
-181.82
-141.45
-100.82
-61.29
-22.28
14.99
50.42
80.85
102.52
113.73
115.57
111.25
106.11
102.16
99.64
98.22
97.29
95.51
91.56
84.68
74.94
64.35
53.50
43.02
34.18
28.24
25.49
25.21
25.97
26.15
25.25
22.22
16.79
9.85
3.01
-2.07
-4.21
-2.97
1.19
7.32
13.46
17.61
18.67
16.54
11.96
6.09
0.04
-5.37
-9.42
-11.70
-11.81
-9.31
-4.02
3.67
12.82
22.18
30.57
37.20
41.34
41.72
36.11
21.84
-2.74
-36.38
-73.91
-107.18
-127.91
-131.07
-116.96
-90.77
-59.79
-30.06
-4.44
16.91
34.13
45.48
47.23
36.05
12.19
-18.70
-47.00
-63.01
-61.20
-42.32
-12.20
21.56
53.02
79.02
98.10
108.36
106.58
89.67
57.42
14.74
-28.89
-62.58
-78.34
-73.72
-52.01
-19.96
14.93
46.22
68.89
79.12
74.54
55.14
24.35
-10.88
-41.75
-60.27
-61.92
-46.85
-19.37
13.82
45.72
70.59
84.91
87.63
80.20
66.00
49.46
34.79
24.71
19.81
18.59
18.32
16.09
9.81
-1.20
-16.15
-33.06
-49.32
-62.25
-69.76
-70.56
-64.34
-51.56
-33.26
-11.05
13.09
36.93
58.00
73.90
82.79
83.89
77.83
66.44
51.97
36.63
22.02
8.89
-2.83
-13.63
-23.91
-33.47
-41.46
-46.93
-48.84
-46.38
-39.51
-29.34
-17.81
-6.94
1.99
8.83
13.29
16.03
18.53
22.15
26.98
31.51
33.31
30.23
21.35
5.20
-17.02
-41.02
-61.04
-73.08
-76.45
-73.33
-67.56
-63.18
-66.74
-81.22
-103.47
-125.72
-140.41
-143.84
-137.28
-126.27
-118.35
-124.57
-150.28
-191.81
-239.02
-281.88
-314.32
-334.27
-342.06
-310.36
-230.04
-119.40
-12.21
68.26
117.86
144.02
157.05
165.05
172.31
175.44
171.69
162.92
154.75
151.59
153.91
159.08
163.51
164.61
158.00
142.60
121.67
101.14
85.73
77.18
74.87
76.92
81.08
83.08
80.44
73.82
66.66
62.42
62.78
67.30
73.99
80.21
82.53
80.12
73.51
64.76
55.89
47.83
40.43
33.01
25.14
16.59
8.00
0.44
-4.99
-8.02
-9.34
-10.23
-11.75
-14.23
-17.26
-20.02
-21.85
-22.55
-22.51
-22.57
-23.59
-26.10
-30.11
-35.16
-40.60
-45.77
-50.00
-52.55
-52.72
-49.94
-43.99
-35.17
-24.30
-12.56
-1.27
8.43
15.73
20.08
21.20
19.05
13.86
6.18
-2.94
-12.07
-19.68
-24.50
-25.96
-24.47
-21.28
-17.99
-15.95
-15.69
-16.86
-18.55
-19.95
-20.77
-21.45
-22.73
-25.25
-29.25
-34.48
-40.28
-45.76
-49.80
-51.12
-48.60
-41.65
-30.66
-17.07
-3.09
9.06
17.76
22.40
23.13
20.52
15.17
7.64
-1.40
-10.93
-19.66
-26.41
-30.52
-32.21
-32.52
-32.88
-34.57
-38.17
-43.34
-49.03
-54.00
-57.35
-59.01
-59.81
-61.26
-65.06
-72.44
-83.48
-96.62
-108.71
-115.53
-113.00
-98.49
-71.80
-35.54
5.69
46.57
82.44
110.18
128.49
137.45
137.90
131.25
119.25
104.16
88.58
75.07
65.30
59.56
56.51
53.69
48.57
39.69
27.37
13.42
0.36
-9.83
-16.52
-20.64
-24.04
-28.61
-35.36
-44.03
-53.16
-60.53
-63.88
-61.53
-52.96
-39.03
-21.73
-3.62
12.96
26.43
36.05
41.66
43.32
41.16
35.43
26.92
16.98
7.42
-0.05
-4.44
-5.92
-5.66
-5.12
-5.43
-6.93
-9.22
-11.61
-13.40
-14.47
-15.25
-16.77
-20.10
-26.11
-35.17
-46.87
-59.82
-71.48
-78.69
-78.65
-69.99
-53.25
-30.97
-6.83
15.44
33.18
45.92
54.44
59.59
61.45
59.77
54.47
46.24
36.58
27.42
21.54
20.69
24.26
29.53
33.57
34.59
32.36
27.82
22.31
18.63
18.78
22.22
26.25
28.10
26.32
20.70
11.90
1.17
-7.29
-8.64
0.21
19.71
48.87
85.84
127.71
170.75
197.29
193.84
162.60
119.21
77.84
43.96
16.96
-5.60
-25.63
-43.89
-58.03
-65.67
-67.09
-64.87
-61.94
-60.01
-59.65
-60.93
-63.91
-67.05
-69.03
-70.03
-71.34
-74.07
-78.36
-83.48
-88.55
-92.90
-95.21
-94.65
-91.74
-87.07
-81.32
-75.16
-68.75
-62.03
-54.55
-45.21
-32.99
-17.68
1.69
26.16
53.38
81.11
107.36
130.98
151.73
169.84
175.98
165.16
138.94
103.97
67.65
34.25
4.90
-20.98
-44.35
-65.89
-84.43
-98.35
-107.30
-111.93
-113.22
-112.68
-111.20
-109.04
-106.20
-101.47
-93.38
-81.57
-66.41
-48.64
-29.02
-8.17
13.22
34.79
52.57
64.76
70.69
70.99
67.30
61.57
55.42
49.62
44.11
38.79
34.17
30.45
27.46
24.51
20.63
14.98
7.26
-2.01
-11.50
-19.10
-23.33
-24.01
-22.34
-20.51
-20.68
-24.10
-30.67
-39.12
-47.41
-54.05
-58.50
-61.04
-62.28
-62.56
-61.69
-59.20
-54.69
-47.99
-39.37
-29.39
-18.66
-7.71
2.96
12.91
21.67
28.81
34.04
37.21
38.31
37.54
35.32
32.20
28.95
26.31
24.92
25.16
27.04
30.33
34.65
39.65
45.02
50.47
55.66
60.21
63.62
65.46
65.42
63.43
59.60
54.19
47.57
40.18
32.51
25.01
18.07
11.87
6.43
1.53
-3.17
-8.01
-13.18
-18.59
-23.73
-27.74
-29.55
-28.29
-23.57
-15.80
-6.12
3.88
12.65
19.12
22.85
23.99
23.00
20.41
16.74
12.65
8.87
6.21
5.15
5.62
6.85
7.74
7.35
5.39
2.43
-0.42
-2.11
-2.21
-1.12
0.19
0.74
-0.01
-1.89
-4.32
-6.65
-8.62
-10.33
-12.18
-14.42
-16.95
-19.31
-20.89
-21.25
-20.47
-19.07
-17.86
-17.53
-18.25
-19.58
-20.48
-19.76
-16.50
-10.41
-1.90
8.18
18.84
29.38
39.43
48.85
57.48
64.95
70.82
74.73
76.72
77.23
76.95
76.38
75.62
74.30
71.78
67.67
61.98
55.22
48.19
41.62
35.95
31.30
27.66
24.88
22.79
21.06
19.22
16.88
13.87
10.38
6.93
4.07
1.98
0.39
-1.30
-3.65
-6.70
-9.97
-12.56
-13.55
-12.44
-9.24
-4.37
1.64
8.32
15.44
22.67
29.43
34.79
37.55
36.80
32.31
24.67
15.11
5.09
-4.32
-12.66
-20.04
-26.88
-33.60
-40.29
-46.79
-52.77
-57.90
-62.02
-65.21
-67.81
-70.49
-74.05
-79.19
-86.25
-94.89
-104.03
-112.06
-117.14
-117.77
-113.19
-103.64
-90.29
-74.86
-59.17
-44.54
-31.59
-20.14
-9.53
0.93
11.68
22.74
33.78
44.33
54.25
63.77
73.61
84.68
97.58
112.30
128.02
143.31
156.65
166.95
173.74
177.18
177.73
175.88
172.09
167.02
161.70
157.35
154.98
154.72
155.54
155.43
151.95
142.95
126.98
103.56
73.20
37.56
-0.50
-36.97
-67.48
-88.34
-97.86
-97.05
-89.27
-79.06
-70.49
-66.00
-66.02
-69.56
-75.20
-81.73
-88.49
-95.04
-100.81
-104.97
-106.68
-105.48
-101.70
-96.40
-90.98
-86.61
-83.79
-82.27
-81.31
-80.08
-78.12
-75.42
-72.35
-69.37
-66.82
-64.82
-63.33
-62.25
-61.47
-60.97
-60.81
-61.06
-61.74
-62.81
-64.10
-65.36
-66.32
-66.79
-66.68
-66.10
-65.18
-63.91
-62.03
-58.90
-53.78
-46.23
-36.43
-25.28
-14.18
-4.50
2.82
7.48
9.76
10.22
9.45
8.15
7.25
7.91
11.53
19.25
31.61
48.36
68.56
91.00
114.66
138.83
162.79
185.34
204.40
217.30
221.47
215.39
199.21
174.62
144.41
111.64
79.14
49.26
23.57
2.73
-13.92
-28.32
-43.25
-61.03
-82.31
-105.35
-126.49
-141.51
-146.98
-141.43
-125.34
-100.91
-71.16
-39.26
-8.12
19.82
42.77
59.88
71.31
78.09
80.96
80.61
77.52
72.01
64.32
54.68
43.64
32.12
21.22
10.73
0.12
-11.07
-22.99
-35.58
-48.94
-63.45
-79.75
-98.35
-120.86
-147.06
-173.94
-196.17
-208.39
-207.90
-196.03
-177.54
-158.48
-146.22
-144.76
-153.46
-167.86
-182.70
-194.95
-205.13
-216.50
-217.42
-200.47
-164.76
-116.87
-65.28
-15.42
30.55
71.66
107.04
136.43
157.96
170.53
174.12
170.22
161.40
151.56
144.83
144.61
153.07
167.87
183.63
193.55
190.63
171.34
137.69
97.05
55.78
19.40
-9.51
-30.78
-45.97
-57.31
-67.33
-79.07
-91.94
-102.22
-106.81
-103.68
-92.68
-75.79
-55.82
-35.19
-15.63
1.96
16.66
27.70
34.57
37.23
36.28
33.11
29.52
26.87
25.95
26.33
27.02
27.29
26.92
26.11
25.54
25.84
27.17
29.27
31.00
30.58
26.30
17.65
5.82
-6.01
-13.47
-13.15
-4.04
10.96
25.64
33.14
29.30
14.61
-6.17
-25.99
-39.20
-42.72
-37.22
-26.18
-13.72
-2.24
7.53
15.49
21.46
24.12
23.64
20.97
17.23
12.83
7.62
-0.33
-14.11
-36.39
-68.91
-106.62
-138.80
-155.23
-152.56
-134.00
-105.75
-76.60
-46.33
-14.74
19.19
55.07
91.20
122.55
146.89
165.42
181.60
199.58
210.67
208.96
193.54
167.98
136.68
103.90
73.00
46.33
25.66
10.43
0.95
-3.11
-2.93
-0.20
3.95
7.81
8.02
1.03
-17.15
-46.23
-82.28
-119.21
-150.05
-168.19
-169.26
-152.21
-118.21
-71.05
-15.41
41.58
89.93
119.40
123.44
101.40
54.88
-7.48
-74.14
-131.08
-164.32
-169.04
-152.06
-125.42
-98.27
-74.33
-52.77
-32.29
-12.69
4.40
16.16
20.46
17.09
8.02
-3.24
-12.22
-14.36
-6.00
13.88
42.28
73.24
98.38
111.04
109.25
96.06
77.32
58.66
43.05
30.49
19.90
11.03
5.04
3.02
4.16
6.20
6.41
2.99
-4.53
-14.98
-26.07
-35.18
-40.36
-40.90
-36.65
-28.02
-16.03
-2.40
9.74
17.37
18.62
14.02
3.99
-10.24
-26.87
-43.67
-58.42
-69.33
-75.16
-75.46
-69.07
-56.88
-41.24
-25.82
-14.72
-11.11
-16.04
-27.65
-41.78
-53.33
-58.31
-54.46
-41.50
-20.89
4.93
33.11
60.81
85.43
104.64
116.20
118.46
110.78
93.69
69.21
40.81
13.20
-8.64
-20.67
-21.11
-10.75
7.50
29.20
49.16
61.98
62.66
47.92
17.92
-22.45
-63.59
-93.56
-102.50
-86.97
-52.15
-9.94
26.68
49.47
58.28
59.92
63.78
76.15
97.14
120.69
138.54
145.08
139.40
124.07
102.50
76.86
47.85
16.15
-16.43
-45.55
-64.50
-66.99
-50.82
-19.67
18.10
52.42
74.51
78.00
60.33
23.91
-24.47
-76.02
-121.94
-155.22
-172.20
-167.46
-142.02
-107.92
-81.33
-70.66
-72.63
-77.30
-75.73
-64.48
-45.99
-26.95
-14.69
-12.61
-18.63
-27.19
-31.98
-27.30
-9.61
21.63
62.96
106.12
141.50
161.17
160.31
138.30
98.99
49.37
-4.95
-50.93
-80.23
-91.84
-89.81
-79.72
-65.65
-49.63
-32.36
-14.64
1.87
14.11
19.89
18.99
12.65
2.95
-7.87
-17.36
-22.52
-20.23
-9.09
10.00
34.13
56.67
71.69
76.51
72.39
63.25
52.99
43.92
36.52
30.69
26.63
24.49
22.97
18.43
6.49
-16.57
-49.90
-88.26
-123.44
-147.56
-156.22
-149.80
-132.60
-107.34
-80.94
-57.19
-38.04
-24.70
-17.50
-15.38
-14.04
-8.10
6.96
31.75
63.14
94.18
115.52
121.77
113.41
95.77
75.81
58.95
46.67
38.02
30.56
22.46
13.77
5.66
-0.38
-3.21
-1.95
3.13
10.73
17.91
20.33
13.96
-3.12
-28.95
-57.78
-81.07
-92.25
-89.20
-74.93
-55.48
-36.54
-21.30
-10.30
-3.02
1.13
2.28
1.25
0.56
4.13
15.52
35.21
59.93
82.55
96.44
98.09
88.53
72.47
55.50
41.14
29.57
18.79
6.08
-8.92
-24.56
-38.34
-48.44
-54.77
-58.71
-62.01
-64.19
-64.72
-61.61
-53.50
-40.98
-26.61
-13.70
-4.75
-0.32
0.74
0.21
-0.20
0.35
1.67
3.13
4.19
4.59
4.57
4.53
4.88
5.92
7.49
8.95
9.27
7.34
2.31
-5.77
-15.66
-25.21
-31.97
-34.22
-31.51
-24.50
-14.46
-2.60
10.06
22.27
32.64
39.58
41.74
38.81
31.86
23.09
15.01
9.32
6.35
5.15
4.33
2.76
0.17
-3.04
-6.02
-7.90
-8.19
-6.91
-4.28
-0.65
3.55
7.68
10.75
11.67
9.94
6.19
2.19
0.22
1.74
6.46
12.28
16.29
16.31
12.04
5.09
-1.89
-6.63
-8.13
-6.79
-3.80
-0.42
2.56
4.86
6.49
7.42
7.28
5.35
0.89
-6.33
-15.55
-24.91
-31.98
-34.76
-32.62
-26.80
-19.90
-14.67
-12.78
-14.35
-18.17
-22.43
-25.49
-26.15
-23.78
-18.11
-9.25
2.49
16.32
31.16
45.44
57.21
64.42
65.33
59.15
46.51
29.46
10.83
-6.60
-21.04
-31.90
-39.60
-44.48
-46.66
-46.14
-43.20
-38.66
-33.86
-30.28
-29.00
-30.21
-33.22
-36.74
-39.35
-39.92
-38.10
-34.34
-29.72
-25.64
-23.10
-22.61
-24.37
-28.42
-34.87
-43.66
-54.10
-64.52
-72.49
-75.55
-72.36
-63.37
-50.72
-37.27
-25.57
-16.91
-11.37
-8.42
-7.52
-8.48
-11.00
-13.95
-15.13
-11.76
-1.42
16.73
41.35
69.26
96.31
118.47
132.85
138.05
134.24
122.80
105.89
85.83
64.67
43.77
23.78
4.99
-12.11
-26.47
-36.70
-41.84
-42.22
-39.50
-36.21
-34.47
-34.95
-36.57
-37.00
-34.10
-27.10
-17.12
-6.72
1.14
4.26
2.02
-4.73
-14.03
-23.59
-31.40
-36.14
-37.51
-36.23
-33.91
-32.48
-33.34
-36.49
-40.11
-40.88
-35.07
-19.95
4.88
37.09
72.19
104.92
130.64
146.46
151.37
145.84
131.10
108.74
80.63
49.15
17.38
-11.11
-32.89
-45.60
-48.58
-43.13
-32.00
-18.43
-5.11
6.42
15.80
23.28
29.11
33.05
34.48
32.87
28.22
21.18
12.69
3.49
-6.19
-16.41
-27.05
-37.12
-44.81
-47.89
-44.59
-34.37
-18.22
1.53
21.80
39.47
52.10
58.21
57.52
50.79
39.58
25.90
11.76
-0.99
-10.95
-17.06
-18.80
-16.20
-9.86
-0.97
8.94
18.31
25.86
30.85
33.18
33.29
32.02
30.26
28.55
26.82
24.24
19.64
12.14
1.85
-9.85
-20.80
-28.95
-33.34
-34.28
-32.98
-30.53
-27.25
-22.62
-15.88
-6.92
3.39
13.39
21.50
26.91
29.84
31.08
31.33
30.67
28.58
24.22
17.06
7.28
-4.13
-15.57
-25.31
-31.98
-34.86
-33.88
-29.45
-22.16
-12.75
-2.28
7.92
16.23
21.28
22.32
19.51
13.81
6.69
-0.47
-6.60
-11.02
-13.26
-12.86
-9.48
-2.97
6.25
17.16
28.21
37.66
44.07
46.62
45.40
41.26
35.49
29.38
23.72
18.70
13.99
9.19
3.91
-1.90
-8.05
-14.14
-19.36
-22.66
-22.77
-18.63
-10.00
1.88
14.49
24.56
29.36
27.93
21.42
12.56
4.18
-2.09
-6.44
-10.20
-14.51
-19.23
-22.79
-23.07
-18.69
-9.79
2.03
14.61
26.10
35.39
41.81
44.75
43.43
37.31
26.73
13.11
-1.28
-14.23
-24.47
-32.17
-38.53
-45.07
-52.77
-61.55
-70.35
-77.63
-81.83
-81.85
-77.15
-67.72
-54.11
-37.70
-20.85
-6.83
1.10
0.92
-7.15
-20.35
-34.34
-44.88
-49.13
-45.97
-35.17
-16.23
11.88
49.70
95.42
143.60
185.63
212.32
217.30
199.55
163.75
118.32
72.21
32.12
1.20
-20.50
-34.51
-42.55
-45.70
-44.43
-39.12
-30.63
-20.50
-10.83
-3.79
-1.16
-3.83
-11.39
-22.17
-33.71
-43.77
-51.27
-56.47
-60.30
-63.10
-63.72
-59.60
-48.03
-27.86
-0.73
28.96
55.64
74.57
83.52
83.23
76.52
66.78
56.69
47.58
39.45
31.53
22.90
13.15
2.66
-7.30
-15.05
-18.98
-18.29
-13.57
-7.06
-2.23
-2.81
-11.34
-28.08
-50.78
-75.47
-98.02
-115.49
-126.69
-131.70
-131.00
-124.71
-112.54
-94.36
-70.57
-42.26
-10.95
21.74
53.91
83.09
106.01
119.20
120.13
108.56
87.03
60.30
33.66
11.26
-4.78
-14.28
-18.10
-17.27
-12.61
-4.96
4.44
13.77
20.91
24.12
22.49
16.22
6.48
-5.04
-16.46
-25.94
-31.98
-33.64
-30.66
-23.75
-14.39
-4.50
4.20
10.62
14.54
16.43
17.07
17.03
16.40
14.82
11.78
7.06
0.92
-5.91
-12.51
-18.11
-22.31
-25.28
-27.61
-30.33
-34.59
-41.38
-51.06
-63.00
-75.64
-87.11
-96.05
-102.11
-106.00
-108.66
-110.41
-110.40
-106.74
-97.26
-80.22
-54.71
-20.94
19.65
64.05
107.63
144.58
169.27
177.96
170.32
149.60
121.61
92.71
67.90
49.81
38.58
32.81
30.67
30.97
33.41
38.29
45.53
53.78
60.15
60.89
53.13
36.31
12.78
-13.22
-37.40
-57.15
-72.02
-82.73
-89.71
-92.11
-88.21
-76.88
-58.95
-37.61
-17.36
-2.19
5.89
7.26
3.87
-2.08
-9.09
-16.53
-24.12
-31.30
-36.99
-39.89
-39.19
-34.98
-28.46
-21.41
-15.54
-11.77
-9.99
-9.22
-8.32
-6.58
-4.14
-1.99
-1.45
-3.58
-8.76
-16.73
-26.86
-38.62
-51.69
-65.69
-79.87
-92.88
-103.13
-109.31
-110.77
-107.37
-98.88
-84.54
-63.41
-35.55
-3.12
29.20
55.35
70.07
71.12
60.12
41.68
21.13
2.37
-12.97
-25.08
-34.40
-40.55
-42.25
-38.25
-28.55
-15.00
-0.75
10.95
17.92
19.70
17.43
13.26
9.55
8.41
11.12
17.86
27.55
38.02
46.69
51.46
51.31
46.44
37.69
25.85
11.21
-6.18
-25.84
-46.29
-65.02
-79.31
-87.37
-89.25
-86.96
-83.68
-82.49
-85.01
-90.96
-98.32
-104.29
-106.15
-101.79
-89.89
-69.82
-42.12
-8.89
26.11
58.51
85.23
106.44
126.13
150.31
183.70
226.42
272.93
313.95
340.41
347.16
334.50
306.83
269.67
227.38
182.55
137.18
94.13
57.50
31.37
17.86
15.82
20.82
27.03
29.37
25.22
14.85
0.61
-14.43
-27.81
-38.24
-45.58
-50.34
-53.12
-54.39
-54.36
-53.12
-50.80
-47.74
-44.43
-41.49
-39.44
-38.33
-37.46
-35.51
-31.09
-23.56
-13.71
-3.70
3.67
6.19
3.22
-4.22
-14.27
-25.36
-36.85
-48.91
-61.62
-74.28
-85.27
-92.77
-95.71
-94.51
-90.83
-86.70
-83.51
-81.36
-79.23
-75.66
-69.43
-60.23
-48.52
-35.38
-22.09
-9.83
0.57
8.66
14.37
17.93
19.70
20.12
19.55
18.34
16.91
15.82
15.61
16.63
18.80
21.58
24.28
26.47
28.14
29.70
31.51
33.58
35.41
36.30
35.73
33.79
31.05
28.10
25.06
21.17
15.23
6.26
-5.77
-19.65
-33.03
-43.34
-48.50
-47.68
-41.47
-31.43
-19.54
-7.58
3.21
12.14
18.88
23.22
25.03
24.30
21.27
16.51
10.73
4.55
-1.66
-7.78
-13.91
-20.14
-26.42
-32.45
-37.54
-40.85
-41.60
-39.39
-34.47
-27.74
-20.88
-15.55
-12.74
-12.46
-13.91
-16.11
-18.37
-20.48
-22.42
-24.73
-27.71
-31.18
-34.38
-36.41
-36.60
-34.65
-30.53
-24.39
-17.68
-12.17
-9.17
-8.97
-10.68
-12.87
-14.36
-14.71
-14.23
-15.10
-19.56
-28.63
-42.12
-58.98
-78.73
-102.03
-130.14
-155.31
-169.27
-166.41
-147.29
-117.87
-84.52
-51.84
-22.59
1.98
21.76
35.72
42.72
42.66
36.43
27.38
20.71
21.99
35.27
61.58
96.98
134.47
168.52
193.86
208.28
212.47
208.73
199.74
187.66
173.27
153.47
131.00
107.68
84.81
63.06
42.47
22.93
4.46
-12.73
-28.11
-40.51
-50.06
-57.17
-62.53
-66.86
-70.67
-74.06
-76.81
-78.95
-79.08
-76.80
-71.96
-64.68
-55.32
-44.49
-32.89
-21.25
-10.22
-0.13
8.09
13.61
15.89
15.00
11.59
6.72
1.59
-2.75
-5.48
-6.60
-6.39
-5.18
-2.99
0.36
4.88
10.42
16.55
22.75
28.22
32.53
34.91
35.72
36.09
37.09
39.42
43.16
47.60
51.11
51.91
48.89
42.31
33.77
24.89
16.92
10.43
5.08
-0.38
-7.02
-14.84
-22.46
-27.55
-28.93
-26.69
-21.81
-15.81
-10.67
-8.18
-9.67
-16.19
-28.18
-46.70
-72.04
-101.34
-127.96
-144.96
-149.72
-145.27
-140.80
-138.12
-135.53
-129.58
-117.01
-94.63
-63.94
-29.55
3.04
29.70
49.23
61.70
68.24
70.26
68.85
64.31
57.15
48.71
40.98
36.27
35.26
37.31
41.16
45.36
48.54
49.96
49.67
48.29
46.76
45.36
43.89
41.86
38.68
33.70
26.65
17.91
8.39
-0.56
-7.95
-13.30
-16.68
-18.53
-19.48
-19.97
-19.95
-19.00
-16.48
-12.08
-6.21
-0.21
3.82
3.74
-1.69
-12.02
-25.05
-37.42
-45.83
-48.20
-44.23
-35.10
-22.68
-8.64
5.87
20.10
33.24
44.20
51.80
55.27
54.72
51.10
45.92
40.54
35.76
31.55
27.27
22.14
15.69
8.07
0.05
-7.25
-12.63
-15.18
-14.73
-11.94
-8.01
-4.12
-1.11
0.81
1.78
2.21
2.71
3.65
5.16
7.44
10.97
16.36
23.99
33.68
44.68
56.47
68.03
78.03
85.30
89.35
90.47
89.60
87.99
86.86
88.06
91.90
96.97
100.89
101.72
98.83
93.10
86.44
81.02
79.79
83.10
88.25
90.50
85.24
69.58
43.15
7.88
-38.39
-89.75
-135.73
-166.80
-180.04
-179.11
-170.53
-160.31
-152.11
-146.56
-138.90
-124.24
-98.33
-60.28
-12.75
38.66
87.01
126.20
145.99
145.25
129.20
105.72
81.48
60.62
44.87
35.51
29.99
24.31
15.39
-0.23
-25.12
-59.71
-101.60
-146.22
-188.77
-217.97
-227.07
-215.12
-187.65
-153.06
-119.13
-90.76
-69.63
-54.90
-44.45
-36.38
-28.92
-21.12
-12.97
-5.32
0.21
2.02
-0.48
-5.61
-9.84
-8.10
4.08
28.36
62.26
99.56
132.53
154.72
159.80
148.52
125.53
96.97
68.54
44.34
26.31
14.25
6.29
-0.09
-7.02
-15.86
-26.40
-37.17
-46.49
-53.10
-56.40
-56.83
-53.70
-46.61
-36.39
-25.02
-15.02
-8.33
-5.72
-6.40
-8.48
-9.81
-8.87
-5.60
-1.26
2.27
3.34
1.06
-4.30
-11.47
-18.59
-23.99
-26.84
-27.26
-26.15
-24.68
-24.02
-24.88
-27.50
-31.69
-36.60
-41.43
-45.44
-48.03
-48.62
-46.67
-41.60
-32.92
-20.44
-4.72
12.88
30.40
45.82
57.64
65.26
69.02
69.73
68.07
64.07
57.11
46.33
31.31
12.54
-8.58
-30.17
-50.59
-68.93
-84.90
-98.56
-109.67
-117.61
-121.36
-120.11
-113.65
-102.57
-88.10
-71.68
-54.66
-37.98
-22.07
-6.80
8.51
24.87
43.28
64.20
87.09
110.35
131.62
148.48
159.18
163.08
160.73
153.34
142.27
128.59
112.97
96.00
78.47
61.53
46.57
34.80
26.81
22.32
20.29
19.36
18.36
16.58
13.85
10.23
5.69
0.02
-6.98
-15.27
-24.33
-33.32
-41.39
-48.01
-53.06
-56.70
-59.09
-60.15
-59.63
-57.20
-52.74
-46.35
-38.45
-29.76
-21.30
-14.20
-9.51
-7.82
-8.98
-12.26
-16.58
-21.08
-25.33
-29.34
-33.24
-37.06
-40.67
-44.01
-47.22
-50.65
-54.52
-58.64
-62.23
-64.09
-63.07
-58.32
-49.54
-36.94
-21.12
-3.01
16.20
35.20
52.80
68.13
80.81
90.75
97.89
102.04
102.81
100.02
94.01
85.85
77.03
68.94
62.35
57.03
52.11
46.43
39.25
30.61
21.33
12.65
5.64
0.71
-2.52
-4.92
-7.41
-10.44
-13.92
-17.43
-20.61
-23.48
-26.41
-29.81
-33.75
-37.81
-41.26
-43.52
-44.52
-44.70
-44.67
-44.63
-43.93
-41.24
-35.14
-24.91
-11.10
4.45
19.28
31.22
39.03
42.57
42.46
39.53
34.47
27.69
19.25
9.05
-3.32
-18.36
-36.40
-57.08
-78.95
-99.51
-115.86
-125.62
-127.72
-122.67
-112.04
-97.71
-81.24
-63.64
-45.59
-27.71
-10.67
5.02
19.26
32.45
45.25
58.10
70.92
83.01
93.33
101.04
105.71
107.38
106.36
103.03
97.74
90.96
83.32
75.61
68.75
63.42
59.89
57.94
56.97
56.19
54.95
52.76
49.40
44.75
38.76
31.39
22.60
12.47
1.14
-11.11
-23.98
-37.14
-50.12
-62.23
-72.48
-79.77
-83.21
-82.52
-78.09
-70.79
-61.49
-50.57
-37.83
-22.78
-5.29
13.92
33.20
50.43
63.77
72.22
75.84
75.21
70.91
63.03
51.24
35.26
15.52
-6.49
-28.36
-47.46
-61.83
-70.78
-74.86
-75.31
-73.26
-69.20
-63.10
-55.06
-46.02
-37.82
-32.71
-32.10
-35.64
-41.02
-44.85
-44.24
-38.00
-27.08
-13.75
-0.40
11.52
21.65
30.20
37.25
42.38
44.97
44.67
41.86
37.51
32.81
28.64
25.38
23.03
21.55
21.09
21.88
24.02
27.20
30.61
33.05
33.25
30.23
23.54
13.48
0.98
-12.68
-26.25
-38.95
-50.66
-61.72
-72.67
-83.74
-94.58
-104.13
-110.72
-112.34
-106.96
-93.03
-69.90
-38.29
-0.54
39.64
77.66
109.03
130.19
139.16
135.70
121.19
98.25
70.23
40.66
12.72
-11.23
-29.94
-43.34
-52.37
-58.64
-63.87
-69.37
-75.31
-80.61
-83.03
-80.11
-70.25
-53.66
-32.50
-10.05
10.54
27.39
40.21
49.67
56.45
60.56
61.47
58.76
52.86
45.24
37.82
32.10
28.48
26.15
23.72
19.98
14.60
8.23
2.12
-2.44
-4.63
-4.26
-1.74
2.18
6.77
11.45
15.93
20.08
23.70
26.53
28.25
28.62
27.50
25.01
21.54
17.62
13.61
9.59
5.53
1.63
-1.72
-3.95
-4.57
-3.32
-0.20
4.21
8.87
12.82
15.55
16.99
17.24
16.38
14.55
12.28
10.01
8.02
6.72
6.82
9.15
14.11
21.62
31.32
43.09
56.08
68.25
76.76
78.56
70.99
52.43
22.80
-16.96
-59.93
-95.66
-116.13
-120.08
-111.88
-97.40
-80.97
-64.86
-49.45
-34.23
-19.60
-7.18
1.29
5.08
4.72
1.24
-4.20
-10.57
-17.08
-23.80
-31.47
-40.68
-51.16
-61.74
-68.18
-69.26
-64.96
-55.96
-43.78
-30.45
-17.87
-7.32
0.77
6.67
10.64
13.40
15.78
18.21
20.62
22.55
23.60
23.49
22.37
20.52
18.69
17.82
18.47
20.57
23.43
26.05
27.50
27.49
26.24
24.66
23.80
24.16
25.46
26.53
25.86
22.09
14.66
3.60
-10.44
-26.12
-41.29
-52.91
-57.84
-53.95
-41.65
-24.02
-6.31
6.18
10.62
7.76
1.34
-4.08
-5.57
-3.19
0.85
3.49
2.42
-2.76
-10.80
-19.49
-26.42
-29.39
-26.66
-16.60
1.45
26.72
56.97
88.67
117.57
139.62
152.03
150.24
133.47
104.42
68.59
32.79
3.04
-17.26
-27.89
-31.24
-30.62
-28.18
-24.81
-20.68
-16.30
-13.22
-13.95
-20.65
-33.90
-51.87
-70.43
-85.10
-92.98
-93.95
-90.54
-86.80
-86.46
-91.60
-101.97
-115.14
-127.89
-137.57
-143.00
-144.72
-144.46
-144.39
-146.33
-151.26
-158.90
-167.83
-175.46
-178.38
-173.07
-157.57
-133.05
-104.79
-81.09
-70.20
-76.73
-98.94
-128.98
-156.03
-170.92
-169.69
-154.51
-131.55
-107.42
-86.25
-68.88
-54.07
-40.44
-27.84
-17.19
-9.28
-3.59
1.99
10.43
24.21
44.02
68.41
94.28
118.16
137.46
151.45
161.22
169.10
177.63
188.72
203.18
220.83
240.75
261.54
281.42
298.31
310.18
315.53
313.89
305.93
293.11
277.12
259.02
238.96
216.52
191.38
163.86
134.84
105.51
76.83
49.60
24.35
1.49
-18.73
-36.37
-51.82
-65.58
-77.65
-87.01
-91.27
-87.79
-74.97
-53.15
-24.79
6.23
35.69
60.09
77.27
87.19
90.22
86.08
73.60
51.45
19.28
-21.52
-67.74
-114.92
-156.48
-187.21
-204.91
-210.29
-205.12
-190.44
-166.08
-131.31
-85.86
-28.07
40.63
114.50
184.42
241.51
280.37
300.13
303.37
294.08
279.80
265.92
254.43
245.07
238.29
236.39
241.85
254.75
247.71
203.40
123.14
27.02
-61.54
-128.36
-170.33
-191.71
-199.98
-202.56
-200.49
-193.02
-180.13
-164.04
-148.01
-135.12
-127.66
-126.20
-130.96
-137.33
-140.27
-136.78
-127.22
-114.25
-101.05
-90.15
-82.76
-78.84
-75.32
-69.66
-61.41
-52.54
-45.76
-42.88
-44.31
-48.83
-54.65
-59.14
-60.95
-60.48
-59.56
-60.25
-63.62
-69.31
-75.78
-80.98
-82.73
-79.80
-72.35
-61.69
-49.62
-37.65
-26.61
-16.73
-7.99
-0.38
5.84
10.26
12.52
12.48
10.42
6.95
2.87
-0.98
-3.86
-5.28
-5.06
-3.51
-1.22
1.10
2.86
3.90
4.41
4.86
5.78
7.61
10.53
14.39
18.69
22.52
24.78
24.59
21.69
16.78
11.39
7.29
5.85
7.42
11.31
16.20
20.75
24.19
26.56
28.56
31.09
34.88
40.10
46.27
52.51
57.68
60.82
61.20
58.33
51.88
41.70
27.96
11.30
-6.99
-25.21
-41.70
-55.30
-65.55
-72.52
-76.36
-76.89
-73.79
-67.04
-57.71
-48.35
-42.50
-43.65
-53.74
-72.15
-95.66
-119.38
-138.28
-148.56
-148.46
-138.08
-118.80
-92.57
-61.46
-27.69
6.29
37.72
63.87
82.65
93.32
96.80
95.33
91.68
88.08
85.52
83.80
82.04
79.48
75.86
71.37
66.19
60.14
52.71
43.70
33.77
24.62
18.32
16.15
17.57
20.20
20.80
16.94
8.45
-2.30
-11.35
-14.98
-11.47
-1.89
10.52
21.78
28.87
30.87
28.84
25.06
21.87
20.85
22.50
26.48
32.03
38.29
44.53
50.12
54.56
57.41
58.45
57.78
55.69
52.51
48.29
42.69
35.16
25.43
14.04
2.61
-6.49
-10.96
-9.63
-3.18
5.83
13.74
17.22
14.50
5.97
-6.04
-18.34
-27.94
-32.96
-32.89
-28.47
-21.20
-12.86
-5.19
0.46
3.30
3.28
1.05
-2.32
-5.71
-8.34
-9.90
-10.55
-10.56
-10.23
-9.80
-9.52
-9.64
-10.30
-11.42
-12.71
-13.82
-14.75
-15.97
-18.29
-22.17
-27.07
-31.27
-32.35
-28.27
-18.45
-4.11
12.31
28.19
41.62
51.63
57.77
59.52
56.27
47.80
35.14
20.82
8.34
0.89
-0.05
4.71
12.46
19.67
23.38
21.95
15.28
4.41
-9.03
-23.42
-37.44
-50.15
-61.02
-69.82
-76.62
-81.60
-85.10
-87.35
-88.44
-88.13
-85.71
-80.02
-69.76
-53.88
-32.18
-5.75
23.09
51.17
75.15
92.31
100.99
100.79
92.39
77.36
57.86
36.46
15.75
-2.10
-15.86
-25.67
-32.85
-39.35
-46.80
-55.78
-65.46
-74.08
-79.81
-81.58
-79.49
-74.50
-67.86
-60.51
-52.96
-45.52
-38.64
-32.98
-29.08
-26.89
-25.59
-23.90
-20.76
-16.01
-10.38
-4.96
-0.50
3.05
6.39
10.29
15.11
20.76
26.96
33.64
41.02
49.32
58.30
67.03
74.18
78.56
79.71
78.01
74.41
69.87
64.90
59.45
53.15
45.68
37.04
27.62
17.99
8.68
-0.07
-8.29
-16.14
-23.75
-30.95
-37.31
-42.20
-45.13
-45.94
-44.94
-42.62
-39.33
-35.01
-29.26
-21.78
-12.90
-3.79
3.81
8.24
8.76
5.83
0.95
-4.06
-7.79
-9.72
-10.05
-9.38
-8.19
-6.68
-4.78
-2.44
0.33
3.31
6.23
8.82
10.93
12.53
13.63
14.15
13.92
12.69
10.26
6.65
2.10
-2.92
-7.92
-12.58
-16.76
-20.49
-23.78
-26.53
-28.48
-29.34
-28.92
-27.18
-24.32
-20.67
-16.76
-13.15
-10.34
-8.49
-7.29
-6.04
-3.91
-0.45
4.08
8.67
11.97
12.85
10.93
6.76
1.59
-3.12
-6.10
-6.62
-4.48
0.04
6.36
13.67
21.04
27.62
32.79
36.31
38.27
39.03
38.95
38.28
37.04
35.13
32.39
28.72
24.10
18.68
12.70
6.50
0.45
-5.16
-10.05
-14.01
-16.73
-17.81
-16.86
-13.61
-8.20
-1.13
6.79
14.62
21.58
27.08
30.75
32.35
31.90
29.64
26.15
22.19
18.48
15.50
13.37
11.93
11.03
10.62
10.84
11.89
13.81
16.35
19.03
21.35
22.92
23.71
23.93
23.89
23.81
23.70
23.42
22.74
21.43
19.34
16.58
13.63
11.43
11.07
13.65
19.77
29.30
41.35
54.50
67.39
79.12
89.47
98.44
105.94
111.56
114.43
113.43
107.63
96.65
80.95
61.72
40.15
17.59
-4.41
-24.12
-39.94
-50.79
-56.41
-57.31
-54.66
-51.04
-49.03
-50.28
-55.08
-62.52
-71.24
-79.65
-86.12
-89.04
-88.81
-86.65
-83.85
-81.20
-79.05
-77.66
-77.11
-77.22
-77.73
-80.87
-89.55
-105.89
-130.09
-160.45
-194.40
-229.33
-263.22
-282.17
-275.83
-242.13
-189.00
-128.27
-68.82
-15.47
29.14
63.39
86.81
98.84
100.76
95.76
88.11
81.22
76.55
73.92
72.80
73.07
73.42
72.55
69.66
64.96
59.40
53.95
49.28
46.02
44.54
43.99
43.19
41.32
38.28
34.59
30.84
27.52
25.06
23.74
23.17
22.78
22.08
20.91
19.44
17.92
16.59
15.67
15.29
15.36
15.63
15.91
16.10
16.22
16.38
16.64
17.13
17.92
19.01
20.38
21.83
23.16
24.06
24.28
23.59
21.87
19.16
15.62
11.55
7.32
3.27
-0.36
-3.42
-5.89
-7.82
-9.28
-10.42
-11.22
-11.71
-11.96
-12.22
-12.82
-14.09
-16.21
-19.08
-22.49
-25.80
-28.38
-29.79
-30.03
-29.43
-28.41
-27.25
-25.76
-23.59
-19.82
-13.79
-5.46
4.30
13.89
21.50
25.67
25.92
22.45
16.61
9.65
2.36
-5.33
-14.09
-24.71
-37.69
-51.20
-66.12
-82.29
-98.32
-111.10
-116.25
-109.67
-89.67
-58.63
-22.60
10.40
34.32
46.88
49.88
47.41
43.47
40.07
37.14
33.81
29.43
24.82
21.45
20.32
21.26
23.02
24.02
22.98
19.77
15.12
10.52
7.26
5.94
6.22
7.10
7.39
6.30
3.75
0.27
-3.24
-5.94
-7.48
-8.06
-8.32
-8.93
-10.38
-12.71
-15.59
-18.46
-20.83
-22.32
-22.84
-22.50
-21.45
-19.86
-17.74
-15.07
-11.81
-8.01
-3.82
0.50
4.70
8.50
11.69
14.19
15.95
16.96
17.27
16.93
15.98
14.50
12.58
10.26
7.66
4.83
1.91
-0.99
-3.70
-6.09
-8.07
-9.59
-10.73
-11.59
-12.36
-13.20
-14.09
-14.97
-15.68
-16.11
-16.17
-15.86
-15.32
-14.84
-14.69
-14.72
-14.71
-14.37
-13.46
-11.89
-9.82
-7.67
-6.09
-5.69
-6.37
-7.87
-9.64
-11.10
-11.80
-11.62
-10.78
-9.85
-9.42
-9.13
-8.40
-6.29
-1.67
6.55
19.39
37.28
60.14
83.44
104.09
119.58
128.41
130.28
126.01
117.47
106.36
93.75
80.25
67.10
55.43
46.13
39.58
35.51
33.69
33.16
32.46
30.46
27.54
24.91
24.15
26.83
34.15
47.43
66.06
86.86
104.67
114.09
110.66
92.34
60.41
14.82
-36.77
-82.70
-113.93
-128.77
-131.35
-127.16
-119.79
-110.45
-99.31
-86.15
-72.44
-60.89
-53.65
-50.86
-50.81
-50.93
-49.25
-45.16
-38.81
-31.81
-26.37
-23.94
-24.33
-25.95
-26.77
-25.43
-21.85
-16.75
-11.83
-8.90
-8.88
-11.15
-13.96
-15.42
-14.33
-10.66
-5.26
0.34
4.38
5.43
3.02
-2.08
-7.55
-9.94
-5.77
7.10
27.78
51.97
73.09
84.62
82.57
66.93
41.42
11.91
-15.93
-38.39
-54.04
-62.90
-65.22
-60.93
-49.84
-32.65
-11.57
9.58
26.06
33.69
30.45
16.91
-4.17
-28.87
-53.06
-72.76
-84.38
-85.23
-73.94
-50.90
-18.74
17.96
53.61
81.59
97.21
99.92
92.06
77.28
59.43
41.88
27.26
17.25
12.60
13.51
19.21
27.33
33.81
33.71
22.81
-0.18
-32.06
-65.66
-91.80
-103.38
-98.62
-81.67
-60.27
-41.95
-31.04
-26.90
-27.08
-29.21
-32.73
-38.82
-48.70
-61.60
-74.20
-81.34
-78.48
-63.82
-39.06
-8.96
20.24
42.85
55.36
57.19
50.74
39.94
28.56
19.34
13.22
9.74
7.96
7.37
8.29
11.99
19.32
29.92
42.41
54.89
65.88
74.83
82.15
85.39
83.30
74.92
59.79
38.61
13.16
-13.94
-39.97
-62.74
-80.87
-93.35
-99.92
-100.92
-97.07
-89.29
-78.36
-64.79
-48.89
-31.15
-12.25
6.31
22.50
34.40
40.82
41.75
38.28
32.07
24.72
17.42
10.44
3.34
-4.62
-13.89
-24.34
-35.19
-45.36
-53.85
-60.07
-64.11
-66.56
-68.12
-69.23
-69.98
-70.26
-70.08
-69.59
-69.00
-68.27
-66.91
-64.18
-59.47
-52.77
-44.80
-36.44
-28.14
-19.29
-8.42
6.03
24.62
46.32
68.70
88.89
104.74
115.45
121.45
123.77
123.19
119.94
113.82
104.70
92.89
79.22
64.70
50.24
36.39
23.34
11.12
-0.22
-10.55
-19.76
-27.79
-34.69
-40.44
-44.79
-47.16
-46.74
-42.87
-35.38
-24.86
-12.73
-0.87
8.79
14.81
16.65
14.92
11.14
7.25
4.84
4.41
5.04
4.53
0.25
-9.78
-25.74
-45.54
-65.18
-79.90
-85.69
-80.58
-65.29
-42.81
-17.41
6.61
25.98
38.80
44.67
44.18
38.59
29.39
18.20
6.49
-4.51
-13.84
-20.89
-25.28
-26.86
-25.69
-21.99
-16.15
-8.84
-1.11
5.71
10.11
10.84
7.37
0.19
-9.26
-18.99
-27.18
-32.78
-35.65
-36.44
-36.13
-35.68
-35.87
-37.31
-40.43
-45.31
-51.36
-57.13
-60.51
-59.22
-51.67
-37.55
-17.99
4.89
28.76
51.90
73.61
94.13
114.18
134.35
154.64
174.25
191.59
204.75
212.05
212.79
207.73
199.02
189.53
181.83
177.18
175.07
173.44
169.63
161.49
148.30
131.01
111.77
93.05
76.61
62.85
50.73
38.43
24.37
8.13
-9.20
-25.54
-39.04
-49.19
-57.29
-65.78
-76.84
-91.14
-107.37
-123.07
-136.32
-147.03
-157.42
-170.86
-189.90
-214.59
-242.01
-267.33
-285.80
-294.71
-294.41
-287.93
-279.48
-272.57
-268.42
-265.52
-260.32
-248.72
-227.54
-195.62
-153.93
-105.20
-53.24
-2.19
44.20
83.22
113.90
137.31
156.13
173.49
191.33
209.28
224.62
233.50
232.82
221.85
202.57
178.96
155.31
134.64
117.94
104.31
91.90
78.97
64.67
49.12
33.12
17.59
3.14
-9.91
-21.31
-30.52
-36.87
-39.98
-40.42
-39.90
-40.79
-45.06
-53.15
-63.54
-73.09
-78.17
-75.78
-64.57
-45.03
-19.33
9.36
37.61
62.45
81.98
95.69
104.33
109.45
112.64
115.00
116.93
118.34
119.07
119.09
118.41
116.91
114.09
109.21
101.64
91.38
79.25
66.82
55.93
48.02
43.67
42.39
43.02
44.16
44.84
44.68
43.90
42.92
41.90
40.47
37.59
31.85
21.82
6.70
-13.32
-36.60
-60.28
-80.83
-95.08
-101.08
-98.59
-88.85
-73.92
-55.83
-36.23
-16.37
2.35
17.99
28.16
30.61
24.22
9.73
-10.35
-32.54
-53.50
-71.04
-84.38
-93.78
-99.89
-103.22
-103.96
-102.32
-98.82
-94.31
-89.78
-85.79
-82.33
-79.00
-75.46
-71.82
-68.65
-66.61
-65.92
-66.03
-65.63
-63.10
-57.10
-47.07
-33.39
-17.13
0.32
17.75
34.20
48.98
61.55
71.30
77.71
80.52
80.00
76.92
72.45
67.65
63.12
58.83
54.15
48.27
40.70
31.45
21.10
10.59
0.83
-7.54
-14.21
-19.04
-22.04
-23.21
-22.51
-19.99
-15.72
-9.98
-3.18
4.17
11.48
18.19
23.93
28.54
32.07
34.75
36.79
38.38
39.65
40.62
41.20
41.19
40.21
37.82
33.59
27.31
19.07
9.30
-1.32
-12.02
-21.95
-30.28
-36.40
-39.91
-40.91
-40.03
-38.20
-36.32
-34.85
-33.62
