1495010662.00
64.000000
-0.00
-0.00
-0.00
-0.00
-0.00
-0.00
-0.00
-0.00
-0.00
-0.00
0.00
0.01
0.01
-0.00
-0.03
-0.05
-0.05
0.00
0.13
0.36
0.66
1.01
1.37
1.72
2.06
2.40
2.79
3.24
3.80
4.42
5.06
5.66
6.20
6.68
7.15
7.68
8.31
9.14
10.09
11.04
11.88
12.56
13.14
13.76
14.65
15.96
17.91
20.32
22.90
25.38
27.58
29.57
31.68
34.32
37.81
42.54
48.15
54.10
59.83
64.97
69.58
74.14
79.34
85.71
93.76
103.00
112.62
121.73
129.77
136.75
143.30
150.75
157.77
166.64
177.95
191.79
206.97
220.57
228.25
225.36
208.53
176.87
132.76
80.05
23.07
-34.94
-92.44
-149.16
-205.23
-260.37
-313.74
-363.87
-409.83
-450.91
-486.50
-515.74
-537.23
-549.22
-549.96
-538.37
-514.21
-478.67
-433.88
-382.45
-327.02
-269.84
-212.63
-156.66
-102.95
-52.37
-5.90
35.58
71.43
101.35
125.50
144.38
158.69
169.15
176.37
180.75
182.57
182.07
179.51
175.23
169.65
163.18
156.15
148.81
141.30
133.69
126.02
118.33
110.69
103.16
95.80
88.68
81.83
75.25
68.95
62.95
57.25
51.86
46.78
42.03
37.59
33.45
29.61
26.07
22.81
19.83
17.11
14.67
12.48
10.54
8.83
7.35
6.07
4.97
4.05
3.27
2.62
2.09
1.65
1.30
1.01
0.79
0.61
0.48
0.37
0.30
0.24
0.21
0.19
0.18
0.18
0.20
0.22
0.24
0.27
0.31
0.34
0.38
0.42
0.46
0.50
0.55
0.60
0.66
0.72
0.79
0.86
0.94
1.03
1.12
1.23
1.35
1.47
1.61
1.77
1.95
2.14
2.35
2.59
2.86
3.15
3.47
3.82
4.21
4.64
5.09
5.59
6.12
6.69
7.30
7.96
8.65
9.39
10.17
11.00
11.86
12.77
13.72
14.74
15.81
16.96
18.18
19.45
20.70
21.86
22.80
23.41
23.58
23.19
22.20
20.55
18.27
15.39
12.01
8.19
4.12
0.02
-3.89
-7.40
-10.37
-12.71
-14.49
-15.86
-16.98
-18.02
-19.10
-20.21
-21.29
-22.25
-22.98
-23.48
-23.80
-24.01
-24.19
-24.25
-24.01
-23.26
-21.86
-19.90
-17.70
-15.81
-14.77
-14.99
-16.45
-18.80
-21.45
-23.79
-25.50
-26.69
-27.87
-29.65
-32.47
-36.20
-40.25
-43.82
-46.14
-46.85
-46.11
-44.53
-43.00
-42.51
-43.85
-47.60
-53.65
-60.71
-66.25
-67.13
-60.69
-46.10
-25.01
-1.03
21.41
38.78
49.55
54.32
54.99
53.62
51.72
48.89
45.28
41.19
37.32
34.43
32.94
32.70
33.06
33.19
32.47
30.87
28.65
26.20
23.87
21.84
20.17
18.80
17.62
16.40
14.97
13.05
10.48
7.39
4.19
1.33
-1.01
-2.98
-5.07
-7.77
-11.44
-16.12
-21.58
-27.41
-33.14
-38.21
-42.03
-44.02
-43.79
-41.27
-36.77
-30.81
-24.03
-16.94
-9.98
-3.46
2.33
7.25
11.28
14.53
17.22
19.55
21.61
23.45
25.06
26.49
27.74
28.72
29.20
28.98
27.98
26.47
24.89
23.72
23.19
23.15
23.17
22.76
21.64
19.80
17.40
14.68
11.78
8.77
5.72
2.75
0.04
-2.34
-4.45
-6.52
-8.92
-11.95
-15.79
-20.39
-25.53
-30.84
-35.93
-40.48
-44.17
-46.79
-48.16
-48.14
-46.80
-44.29
-40.99
-37.34
-33.86
-30.89
-28.61
-26.99
-25.73
-24.46
-22.79
-20.41
-17.09
-12.62
-6.84
0.36
8.96
18.65
28.77
38.40
46.61
52.74
56.64
58.63
59.27
59.00
57.96
56.03
53.03
48.98
44.16
38.95
33.64
28.32
22.99
17.61
12.29
7.17
2.40
-2.12
-6.58
-11.26
-16.27
-21.45
-26.42
-30.63
-33.59
-34.95
-34.67
-32.98
-30.25
-26.90
-23.29
-19.53
-15.62
-11.45
-6.96
-2.24
2.47
6.85
10.63
13.67
16.15
18.51
21.32
24.96
29.45
34.30
38.73
42.04
43.90
44.43
44.09
43.36
42.48
41.51
40.40
39.09
37.63
36.01
34.15
31.89
29.13
25.95
22.65
19.60
17.06
14.98
13.02
10.70
7.53
3.37
-1.57
-6.69
-11.25
-14.57
-16.28
-16.34
-15.00
-12.59
-9.37
-5.44
-0.81
4.33
9.64
14.52
18.34
20.72
21.67
21.60
21.09
20.61
20.30
19.98
19.30
18.03
16.21
14.14
12.14
10.41
8.88
7.34
5.65
3.86
2.17
0.76
-0.38
-1.52
-3.09
-5.51
-9.00
-13.53
-18.83
-24.54
-30.30
-35.90
-41.29
-46.44
-51.21
-55.32
-58.29
-59.67
-59.19
-57.04
-53.78
-50.12
-46.62
-43.40
-40.23
-36.75
-32.79
-28.46
-24.09
-19.91
-15.90
-11.75
-7.14
-1.93
3.52
8.55
12.47
14.82
15.65
15.41
14.74
14.15
13.94
14.18
14.81
15.84
17.24
18.95
20.68
21.93
22.09
20.61
17.25
12.09
5.57
-1.80
-9.53
-17.18
-24.39
-30.89
-36.44
-40.91
-44.27
-46.59
-47.89
-48.12
-47.16
-44.92
-41.51
-37.36
-33.08
-29.24
-26.02
-23.10
-19.76
-15.18
-8.88
-0.91
8.21
17.69
26.75
34.76
41.35
46.50
50.72
55.14
61.38
70.98
84.73
101.97
120.61
137.74
150.66
157.80
159.15
155.94
150.02
143.18
136.78
131.84
129.14
129.38
133.00
139.89
149.22
159.53
168.96
175.68
178.24
175.64
167.36
153.27
133.70
109.53
82.36
54.36
28.07
5.89
-10.40
-20.03
-23.20
-20.94
-14.62
-5.48
5.70
18.65
33.28
49.25
65.69
81.23
94.43
104.27
110.56
113.84
114.96
114.54
112.61
108.59
101.65
91.20
77.18
60.17
41.17
21.30
1.62
-17.05
-34.04
-48.84
-61.14
-70.90
-78.37
-84.25
-89.53
-95.23
-102.12
-110.57
-120.48
-131.44
-142.86
-154.06
-164.36
-173.16
-180.00
-184.76
-187.70
-189.35
-190.36
-191.12
-191.61
-191.45
-190.11
-187.23
-182.95
-177.76
-172.46
-167.79
-164.09
-161.24
-158.74
-155.98
-152.50
-148.27
-143.57
-138.78
-134.24
-130.05
-126.08
-122.07
-117.61
-112.08
-104.73
-94.85
-82.18
-67.31
-51.81
-37.83
-27.27
-20.86
-17.70
-15.47
-11.37
-3.25
9.69
26.78
46.40
66.77
86.60
105.09
121.70
135.68
145.75
150.29
147.83
137.65
120.24
97.20
70.83
43.44
16.55
-9.44
-35.24
-62.36
-92.57
-127.15
-166.13
-207.72
-248.24
-282.72
-306.32
-315.86
-310.89
-293.65
-267.94
-237.44
-204.29
-168.66
-129.64
-86.68
-40.82
5.08
47.13
82.02
108.19
126.27
138.39
147.08
154.09
160.17
165.40
170.07
175.12
182.02
192.07
205.62
221.72
238.47
253.69
265.62
273.21
276.05
274.17
267.65
256.63
241.32
222.13
199.80
175.45
150.60
126.94
106.08
89.04
75.99
66.10
57.83
49.49
39.75
28.09
14.85
0.96
-12.35
-24.13
-33.83
-41.55
-47.78
-53.19
-58.35
-63.53
-68.73
-73.77
-78.41
-82.43
-85.69
-88.12
-89.73
-90.63
-90.98
-90.93
-90.53
-89.75
-88.49
-86.66
-84.17
-80.93
-76.74
-71.26
-64.23
-55.59
-45.64
-35.12
-24.94
-16.07
-9.28
-5.14
-3.93
-5.65
-9.95
-16.03
-22.77
-28.90
-33.36
-35.67
-36.10
-35.54
-35.18
-36.03
-38.52
-42.47
-47.23
-52.09
-56.45
-60.05
-62.85
-64.97
-66.53
-67.85
-69.36
-71.64
-75.21
-80.22
-86.33
-92.82
-98.91
-104.22
-108.73
-112.67
-115.92
-117.91
-117.64
-114.15
-106.99
-96.50
-83.71
-69.96
-56.45
-44.10
-33.49
-25.01
-18.91
-15.19
-13.57
-13.43
-14.02
-14.67
-15.08
-15.32
-15.74
-16.73
-18.46
-20.62
-22.43
-22.82
-20.88
-16.39
-9.99
-3.11
2.61
5.93
6.53
4.97
2.43
0.21
-0.69
0.42
3.75
9.18
16.05
23.15
28.78
31.32
29.76
24.19
15.85
6.71
-1.25
-6.76
-9.57
-10.50
-10.98
-12.47
-15.76
-20.53
-25.40
-28.23
-26.89
-19.96
-7.10
10.96
32.74
56.60
81.07
104.96
127.31
147.53
165.47
181.70
197.21
212.86
228.39
241.76
249.28
246.75
231.25
202.80
164.95
123.99
87.24
61.09
49.71
54.59
74.80
107.49
148.28
191.66
231.56
262.46
280.53
284.62
276.43
259.77
239.18
218.57
200.14
184.30
169.97
155.38
138.78
118.95
95.26
67.48
35.52
-0.36
-39.25
-79.10
-116.98
-149.47
-173.70
-188.12
-192.71
-188.56
-177.18
-159.90
-138.01
-113.26
-88.48
-67.61
-54.99
-53.99
-65.77
-88.73
-119.22
-153.10
-187.54
-221.96
-257.85
-297.23
-340.77
-386.52
-430.02
-465.89
-489.78
-499.99
-497.80
-486.55
-470.03
-451.01
-430.79
-409.38
-386.42
-361.78
-335.97
-309.81
-283.89
-258.04
-231.32
-202.30
-169.72
-132.99
-92.30
-48.50
-2.84
43.10
87.40
127.91
162.44
189.34
208.02
219.14
224.24
225.08
222.94
218.39
211.50
202.31
191.26
179.20
167.02
155.24
143.86
132.46
120.51
107.60
93.59
78.71
63.65
49.57
38.07
30.73
28.72
32.29
40.61
52.16
65.33
78.95
92.41
105.52
117.99
129.15
138.06
143.91
146.50
146.33
144.42
141.73
138.75
135.35
130.97
125.07
117.50
108.60
99.12
89.91
81.59
74.28
67.66
60.99
53.56
44.83
34.74
23.76
12.72
2.51
-6.26
-13.50
-19.70
-25.63
-32.13
-39.83
-49.01
-59.60
-71.05
-82.29
-91.81
-97.90
-99.00
-94.19
-83.53
-68.04
-49.46
-29.73
-10.58
6.72
21.30
32.70
40.77
45.69
48.06
48.74
48.67
48.57
48.81
49.35
49.91
50.17
49.90
49.10
47.94
46.70
45.57
44.56
43.41
41.66
38.84
34.70
29.31
23.03
16.36
9.65
3.06
-3.38
-9.70
-15.90
-22.10
-28.62
-35.92
-44.24
-53.12
-61.12
-66.03
-65.48
-57.89
-43.19
-22.99
-0.20
21.95
40.69
54.43
62.76
66.26
66.02
63.26
59.03
54.20
49.49
45.49
42.56
40.77
39.83
39.20
38.25
36.51
33.81
30.19
25.73
20.43
14.16
6.86
-1.36
-10.05
-18.52
-26.09
-32.30
-36.98
-40.34
-42.85
-45.21
-48.17
-52.30
-57.58
-63.11
-67.18
-67.64
-62.66
-51.50
-34.85
-14.62
6.80
27.20
45.16
60.02
71.64
80.19
85.92
89.22
90.71
91.18
91.51
92.40
94.28
97.31
101.37
106.12
111.04
115.43
118.49
119.45
117.78
113.23
105.84
95.90
83.83
70.24
55.89
41.58
28.05
15.72
4.51
-6.15
-17.07
-28.83
-41.53
-54.49
-66.35
-75.44
-80.14
-79.47
-73.25
-62.25
-47.94
-32.12
-16.45
-2.12
10.17
20.15
27.69
32.69
35.18
35.43
34.01
31.67
29.13
26.80
24.73
22.74
20.59
18.21
15.75
13.49
11.64
10.19
8.82
7.06
4.50
1.03
-3.15
-7.65
-12.03
-16.10
-19.98
-23.88
-28.06
-32.61
-37.57
-43.01
-49.02
-55.50
-61.83
-66.80
-68.90
-66.91
-60.47
-50.33
-38.05
-25.35
-13.48
-3.02
5.96
13.38
19.03
22.41
23.25
21.79
18.80
15.46
12.80
11.34
10.98
11.15
11.17
10.61
9.40
7.78
6.13
4.70
3.51
2.33
0.73
-1.69
-5.06
-9.22
-13.66
-17.80
-21.25
-24.00
-26.42
-29.12
-32.70
-37.51
-43.59
-50.56
-57.65
-63.76
-67.53
-67.70
-63.44
-54.62
-41.99
-26.96
-11.23
3.62
16.42
26.50
33.67
37.97
39.65
39.08
36.81
33.53
29.95
26.73
24.28
22.66
21.61
20.72
19.61
18.15
16.47
14.91
13.78
13.11
12.64
11.81
10.11
7.32
3.53
-0.88
-5.52
-10.16
-14.78
-19.50
-24.46
-29.76
-35.42
-41.46
-47.75
-53.91
-59.22
-62.63
-62.91
-59.18
-51.21
-39.62
-25.76
-11.35
1.98
13.04
21.21
26.39
28.79
28.82
27.02
24.07
20.79
17.99
16.25
15.79
16.36
17.35
18.17
18.42
18.01
17.03
15.58
13.59
10.85
7.24
2.75
-2.28
-7.39
-12.06
-15.93
-18.89
-21.13
-23.06
-25.30
-28.42
-32.79
-38.27
-44.09
-48.97
-51.39
-50.07
-44.40
-34.67
-21.95
-7.79
6.19
18.64
28.63
35.69
39.76
41.12
40.22
37.63
33.99
29.85
25.71
21.96
18.84
16.41
14.55
13.02
11.61
10.19
8.76
7.34
5.88
4.19
2.03
-0.75
-4.08
-7.63
-11.03
-13.96
-16.36
-18.47
-20.83
-24.18
-29.17
-36.19
-45.04
-54.86
-64.13
-70.90
-73.34
-70.29
-61.70
-48.72
-33.35
-17.82
-3.93
7.31
15.77
21.89
26.24
29.22
31.01
31.65
31.37
30.64
30.04
30.00
30.58
31.46
32.12
32.16
31.40
29.97
28.15
26.12
23.86
21.13
17.71
13.51
8.76
3.90
-0.57
-4.35
-7.49
-10.42
-13.79
-18.26
-24.29
-31.93
-40.80
-50.08
-58.69
-65.36
-68.81
-68.16
-63.03
-53.82
-41.64
-28.04
-14.60
-2.58
7.32
15.02
20.74
24.81
27.50
29.09
29.83
30.14
30.53
31.57
33.68
36.92
40.97
45.24
49.06
51.90
53.53
54.07
53.77
52.90
51.68
50.14
48.22
45.79
42.79
39.25
35.30
31.03
26.43
21.28
15.16
7.68
-1.29
-11.39
-21.62
-30.50
-36.32
-37.69
-33.89
-25.04
-12.10
3.39
19.69
35.12
48.26
58.05
63.75
65.01
61.93
55.13
45.79
35.38
25.40
16.97
10.54
5.89
2.35
-0.76
-3.90
-7.24
-10.65
-13.95
-17.13
-20.27
-23.52
-26.88
-30.26
-33.51
-36.51
-39.32
-41.95
-44.38
-46.42
-48.01
-49.29
-50.75
-53.21
-57.42
-63.69
-71.60
-79.95
-86.94
-90.68
-89.81
-83.87
-73.55
-60.47
-46.72
-34.25
-24.36
-17.46
-13.26
-11.13
-10.49
-11.07
-12.77
-15.56
-19.19
-23.20
-27.06
-30.29
-32.60
-33.88
-34.20
-33.65
-32.37
-30.45
-27.98
-25.06
-21.85
-18.69
-16.09
-14.59
-14.66
-16.41
-19.64
-23.86
-28.58
-33.52
-38.69
-44.33
-50.73
-57.95
-65.63
-72.98
-78.80
-81.82
-80.92
-75.55
-65.85
-52.76
-37.63
-21.95
-6.91
6.68
18.40
28.17
36.15
42.76
48.63
54.49
60.91
67.92
74.85
80.55
83.76
83.77
80.85
76.22
71.65
68.68
67.93
68.91
70.24
70.36
68.19
63.56
57.15
50.04
43.14
36.88
31.17
25.60
19.74
13.26
5.94
-2.22
-10.90
-19.37
-26.29
-30.04
-29.18
-23.08
-12.23
1.86
17.10
31.48
43.61
52.80
58.95
62.20
62.82
61.22
58.11
54.57
51.78
50.61
51.16
52.64
53.59
52.57
48.90
43.00
36.17
29.93
25.26
22.11
19.71
16.97
13.25
8.61
3.65
-0.81
-4.23
-6.50
-7.85
-8.60
-9.02
-9.41
-10.10
-11.31
-12.63
-12.51
-8.05
4.22
26.84
59.82
99.79
140.59
175.25
198.32
207.42
203.28
188.50
165.85
137.19
103.71
66.53
27.48
-11.00
-46.63
-78.19
-105.84
-130.62
-153.39
-173.93
-190.94
-202.69
-208.12
-207.51
-202.42
-195.04
-187.24
-179.98
-173.29
-166.70
-159.82
-152.61
-145.31
-138.13
-131.05
-123.77
-116.00
-107.71
-99.28
-91.40
-84.85
-80.26
-77.87
-77.45
-78.25
-79.05
-78.39
-74.80
-67.27
-55.49
-40.09
-22.42
-4.14
13.30
28.93
42.28
53.17
61.38
66.65
68.70
67.67
64.22
59.65
55.48
52.97
52.74
54.47
57.16
59.55
60.60
59.87
57.50
54.05
50.14
46.13
41.99
37.42
32.13
26.12
19.81
13.80
8.66
4.60
1.29
-1.96
-5.95
-11.25
-17.95
-25.58
-33.30
-40.02
-44.69
-46.51
-45.00
-40.06
-32.01
-21.48
-9.31
3.59
16.37
28.31
38.83
47.42
53.58
56.90
57.25
54.98
51.00
46.63
43.13
41.23
40.92
41.50
42.02
41.73
40.38
38.20
35.58
32.86
30.03
26.83
22.83
17.60
10.93
2.81
-6.44
-16.31
-26.23
-35.73
-44.55
-52.60
-59.91
-66.39
-71.72
-75.40
-76.77
-75.13
-69.84
-60.44
-46.78
-29.24
-8.74
13.27
35.15
55.49
73.45
88.86
102.13
113.90
124.73
134.94
144.64
153.89
162.91
172.23
182.64
194.94
209.59
226.42
244.46
262.11
277.50
289.04
295.82
297.88
296.11
291.83
286.37
280.68
275.21
269.92
264.56
258.87
252.63
245.63
237.59
228.03
216.32
201.87
184.33
163.80
140.88
116.44
91.39
66.33
41.38
16.24
-9.70
-37.18
-66.88
-99.28
-134.49
-171.95
-210.23
-247.05
-279.74
-305.93
-324.30
-335.00
-339.47
-339.89
-338.29
-336.03
-333.64
-331.07
-328.18
-325.04
-321.96
-319.25
-316.99
-314.98
-312.66
-309.39
-304.57
-297.79
-288.87
-277.83
-265.00
-250.92
-236.29
-221.73
-207.81
-195.02
-183.85
-174.69
-167.60
-162.09
-156.91
-150.30
-140.29
-125.58
-106.18
-83.48
-59.69
-37.01
-16.93
0.05
14.17
26.46
37.70
48.01
56.72
62.98
66.39
67.21
66.18
64.28
63.36
64.88
69.19
75.23
81.35
86.27
89.53
91.31
92.22
94.54
100.25
109.81
121.88
134.46
146.24
157.01
167.06
176.87
188.96
205.66
228.06
255.44
286.13
318.47
350.67
380.21
392.97
378.60
337.44
282.15
228.36
185.55
155.68
136.16
123.24
112.62
104.43
100.04
99.65
100.89
99.93
93.06
80.36
62.65
41.61
20.70
2.88
-10.91
-22.07
-33.10
-45.98
-61.54
-80.03
-101.02
-122.61
-142.63
-159.30
-171.64
-179.23
-182.00
-180.40
-175.68
-169.41
-162.22
-154.11
-144.86
-134.56
-123.93
-113.99
-105.62
-99.33
-94.83
-90.94
-86.33
-80.16
-72.28
-63.10
-53.18
-43.02
-33.09
-23.72
-15.26
-7.88
-1.67
3.38
7.32
10.19
11.96
12.65
12.37
11.38
10.03
8.61
7.36
6.38
5.67
5.10
4.43
3.54
2.38
1.18
0.25
-0.14
-0.22
-0.69
-2.48
-6.33
-12.29
-19.62
-27.04
-33.22
-37.37
-39.40
-39.78
-39.16
-38.02
-36.58
-34.85
-32.79
-30.45
-27.81
-24.67
-20.62
-15.29
-8.66
-1.38
5.35
10.13
11.86
10.12
5.39
-1.09
-7.83
-13.53
-17.46
-19.57
-20.29
-20.26
-19.96
-19.57
-19.02
-18.20
-17.18
-16.25
-15.67
-15.53
-15.62
-15.50
-14.94
-14.06
-13.47
-13.86
-15.66
-18.70
-22.30
-25.80
-28.95
-32.22
-36.55
-42.77
-50.93
-59.96
-67.97
-72.91
-73.53
-69.86
-63.38
-56.32
-50.74
-47.64
-46.67
-46.40
-45.00
-41.07
-34.24
-25.42
-16.63
-10.75
-11.11
-20.69
-41.22
-71.81
-108.38
-144.08
-171.13
-183.47
-179.13
-160.92
-135.20
-108.98
-87.29
-71.73
-61.02
-52.75
-45.25
-38.26
-32.47
-28.23
-24.84
-20.62
-13.96
-4.33
7.24
18.60
27.64
33.22
35.72
36.54
37.35
39.26
42.39
46.13
49.62
52.43
54.70
56.99
59.85
63.56
67.94
72.47
76.44
79.17
80.21
79.40
76.99
73.59
69.95
66.82
64.59
63.33
62.72
62.38
62.08
61.85
61.84
62.12
62.46
62.42
61.54
59.57
56.55
52.77
48.65
44.51
40.53
36.68
32.83
28.81
24.49
19.89
15.20
10.84
7.41
5.56
5.72
7.98
11.98
17.01
22.27
27.11
31.17
34.35
36.70
38.19
38.74
38.23
36.73
34.53
32.12
30.02
28.60
27.96
28.00
28.51
29.37
30.40
31.32
31.48
30.09
26.41
20.23
12.00
2.59
-7.00
-16.07
-24.30
-31.64
-38.10
-43.59
-48.01
-51.22
-53.24
-54.07
-53.58
-51.50
-47.49
-41.42
-33.58
-24.66
-15.50
-6.90
0.61
6.71
11.26
14.23
15.78
16.32
16.44
16.68
17.29
18.16
18.92
19.24
19.10
18.76
18.55
18.54
18.37
17.43
15.17
11.57
7.19
3.03
-0.08
-1.74
-2.29
-2.58
-3.58
-5.91
-9.62
-14.24
-19.00
-23.05
-25.72
-26.58
-25.43
-22.32
-17.69
-12.21
-6.71
-1.86
2.07
5.27
8.02
10.48
12.43
13.44
13.27
12.05
10.33
8.56
6.67
3.83
-1.41
-10.55
-24.61
-43.81
-67.78
-95.82
-127.07
-160.32
-193.59
-224.07
-248.22
-263.18
-268.06
-264.51
-256.07
-246.85
-240.08
-237.32
-238.43
-241.80
-245.70
-249.04
-251.43
-252.78
-252.75
-250.71
-246.08
-238.66
-227.82
-213.60
-196.88
-179.14
-161.68
-145.05
-129.14
-113.58
-98.21
-80.55
-58.99
-33.93
-7.72
16.87
38.37
56.75
72.70
86.97
105.46
132.52
168.20
208.01
246.09
278.77
305.44
327.47
347.02
374.45
417.17
474.63
538.01
595.86
640.80
671.60
691.66
706.65
733.37
784.49
861.96
956.32
1053.59
1143.10
1219.37
1280.09
1253.70
1097.76
821.92
488.78
170.40
-90.40
-283.42
-417.37
-507.65
-569.27
-602.66
-606.43
-585.86
-552.71
-520.67
-498.58
-489.14
-491.07
-501.52
-509.00
-504.71
-487.37
-460.50
-431.80
-406.78
-387.61
-374.52
-367.08
-359.26
-346.06
-326.44
-303.82
-283.78
-269.85
-262.41
-259.27
-256.83
-248.68
-230.15
-200.50
-163.16
-124.02
-88.15
-58.48
-35.68
-18.94
-5.92
5.32
15.41
23.86
29.65
32.55
33.23
32.93
32.76
33.42
34.97
37.02
39.10
40.61
41.20
40.70
39.20
36.93
34.24
31.45
28.62
25.67
22.31
18.46
14.31
10.26
6.64
3.55
0.74
-2.13
-5.35
-8.92
-12.69
-16.54
-20.42
-24.39
-28.28
-31.53
-33.20
-32.16
-27.55
-19.12
-7.42
6.39
20.82
34.53
46.54
56.42
64.11
69.75
73.50
75.44
75.65
74.39
72.19
69.82
68.05
67.35
67.65
68.47
69.12
69.08
68.13
66.41
64.32
62.17
60.06
57.87
55.44
52.85
50.32
48.05
46.12
44.50
42.97
41.32
39.41
37.26
35.09
33.12
31.41
29.92
28.71
27.75
27.09
26.92
27.65
30.10
34.95
42.38
51.89
63.00
74.72
85.76
94.90
101.42
105.81
108.97
111.57
113.85
117.01
121.55
127.10
132.76
137.27
141.11
145.04
149.45
154.41
161.89
172.82
186.44
200.56
211.95
220.10
225.39
228.38
229.68
232.47
238.39
246.56
254.25
257.74
257.21
254.27
250.63
230.12
186.99
127.93
68.23
28.69
6.13
-5.34
-10.53
-13.57
-16.09
-16.31
-13.29
-8.04
-3.10
-2.08
-4.94
-10.62
-18.16
-26.77
-34.01
-38.62
-41.16
-43.55
-48.62
-56.33
-65.72
-75.81
-85.71
-93.58
-98.47
-100.75
-101.79
-103.54
-106.13
-109.04
-111.65
-113.47
-113.68
-112.23
-109.90
-108.05
-108.20
-110.74
-115.36
-121.44
-128.29
-135.21
-141.96
-148.85
-156.53
-165.86
-177.48
-191.78
-208.74
-227.55
-246.33
-262.37
-272.85
-275.71
-270.59
-258.92
-243.30
-226.50
-210.47
-195.92
-182.68
-170.27
-158.46
-147.34
-137.10
-127.65
-118.57
-109.27
-99.31
-88.67
-77.74
-67.28
-58.13
-50.94
-45.95
-42.93
-41.24
-39.98
-38.37
-35.99
-32.91
-29.53
-26.37
-23.76
-21.75
-20.15
-18.74
-17.29
-15.62
-13.53
-10.73
-6.98
-2.16
3.61
10.00
16.50
22.53
27.53
31.06
32.94
33.28
32.44
31.05
29.63
28.63
28.16
28.07
28.12
28.00
27.50
26.45
24.82
22.61
19.97
17.13
14.36
11.93
9.99
8.45
6.98
5.23
2.88
-0.01
-3.16
-6.13
-8.64
-10.65
-12.32
-13.87
-15.47
-17.28
-19.41
-22.00
-25.07
-28.43
-31.53
-33.47
-33.40
-30.90
-26.23
-20.23
-13.97
-8.37
-3.81
-0.25
2.57
4.92
6.87
8.49
9.84
11.18
12.81
14.95
17.44
19.74
21.15
21.20
19.93
18.01
16.36
15.68
16.13
17.26
18.30
18.50
17.46
15.19
11.99
8.33
4.72
1.66
-0.42
-1.22
-0.86
0.07
0.74
0.32
-1.55
-4.60
-7.88
-10.33
-10.99
-9.39
-5.56
-0.03
6.38
12.65
17.79
21.04
22.08
21.27
19.51
18.02
17.86
19.48
22.71
26.72
30.49
33.13
34.25
33.97
32.75
31.14
29.43
27.52
25.03
21.54
16.82
11.14
5.06
-0.74
-5.60
-9.39
-12.34
-14.99
-17.89
-21.26
-24.87
-28.09
-30.31
-31.15
-30.58
-28.79
-25.99
-22.19
-17.26
-11.24
-4.47
2.37
8.47
13.30
16.70
18.84
20.01
20.30
19.67
18.06
15.65
12.91
10.38
8.53
7.41
6.79
6.28
5.56
4.46
2.99
1.24
-0.71
-2.89
-5.36
-8.15
-11.26
-14.52
-17.68
-20.46
-22.68
-24.38
-25.76
-27.07
-28.42
-29.47
-29.49
-27.55
-22.95
-15.70
-6.53
3.18
11.93
18.61
22.76
24.69
25.17
24.99
24.64
24.23
23.56
22.50
21.17
19.95
19.30
19.47
20.33
21.46
22.40
22.94
23.17
23.30
23.37
23.14
22.14
20.01
16.76
12.77
8.63
4.80
1.47
-1.55
-4.51
-7.67
-11.10
-14.62
-17.82
-19.98
-20.30
-18.11
-13.27
-6.16
2.28
10.91
18.75
25.12
29.53
31.53
30.68
26.68
19.90
11.53
3.58
-1.78
-2.97
0.43
7.56
16.81
26.34
34.76
41.31
45.80
48.46
49.70
49.98
49.79
49.41
48.89
47.94
46.19
43.25
39.11
34.02
28.50
22.90
17.30
11.27
4.09
-4.92
-15.95
-28.35
-40.64
-50.89
-57.33
-58.98
-55.95
-49.28
-40.47
-31.06
-22.16
-14.40
-7.97
-2.82
1.23
4.39
6.77
8.37
9.09
8.91
7.90
6.31
4.46
2.55
0.62
-1.34
-3.19
-4.58
-4.95
-3.93
-1.68
0.97
2.66
2.05
-1.75
-8.74
-18.09
-28.41
-38.36
-47.08
-54.52
-61.31
-68.42
-76.69
-86.31
-96.61
-106.02
-112.53
-114.40
-110.83
-102.34
-90.57
-77.54
-64.77
-52.73
-41.02
-29.00
-16.49
-4.17
6.89
15.72
22.27
27.49
32.97
40.17
49.80
61.50
74.04
85.66
94.54
99.04
97.97
90.97
78.61
62.61
45.48
29.95
18.09
10.87
7.87
7.67
8.60
9.26
8.82
6.83
2.93
-3.15
-11.46
-21.28
-31.03
-38.51
-41.68
-39.62
-32.94
-23.80
-15.01
-8.91
-6.51
-7.40
-10.35
-14.35
-19.21
-25.49
-33.75
-43.67
-53.67
-61.38
-64.74
-62.93
-56.89
-48.83
-41.23
-35.99
-33.98
-35.31
-39.68
-46.60
-55.37
-64.86
-73.78
-81.09
-86.55
-91.04
-96.28
-104.16
-115.76
-130.70
-147.14
-162.43
-173.99
-180.31
-181.30
-178.09
-172.37
-165.54
-158.03
-149.36
-138.51
-124.66
-107.76
-88.66
-68.68
-49.15
-30.80
-13.76
2.13
17.10
31.32
44.97
58.52
72.77
88.48
105.95
124.59
143.03
159.74
173.78
185.29
195.31
204.84
214.02
221.72
225.88
224.42
216.30
201.80
182.31
159.64
135.37
110.49
85.63
61.43
38.74
18.58
1.78
-11.29
-21.02
-28.52
-35.31
-42.91
-52.46
-64.26
-77.64
-91.10
-102.76
-110.90
-114.39
-112.82
-106.42
-95.78
-81.94
-66.45
-51.59
-40.14
-34.70
-36.72
-45.70
-59.15
-73.29
-84.31
-89.49
-87.63
-78.70
-63.25
-41.84
-15.02
16.30
50.67
85.92
119.68
149.94
175.66
196.76
213.98
228.32
240.63
251.23
259.72
265.09
265.90
260.64
248.18
228.11
200.93
167.96
131.02
92.05
52.84
14.97
-20.08
-50.86
-75.94
-93.99
-104.06
-105.80
-99.74
-87.41
-71.30
-54.61
-40.65
-31.93
-29.63
-33.24
-41.06
-50.88
-60.95
-70.35
-78.98
-87.13
-94.91
-102.07
-108.11
-112.61
-115.43
-116.77
-116.95
-116.08
-114.10
-110.86
-106.36
-100.91
-95.02
-89.14
-83.30
-76.78
-68.33
-56.70
-41.30
-22.63
-2.07
18.89
39.54
60.43
83.06
108.87
138.01
168.64
197.24
219.91
234.04
239.32
237.85
233.25
229.18
228.12
230.78
236.26
242.63
247.86
250.42
249.56
245.15
237.30
225.76
209.79
188.19
160.12
126.01
87.87
49.14
13.59
-15.82
-37.73
-52.39
-60.91
-64.51
-63.93
-59.49
-51.59
-40.92
-28.46
-14.84
0.02
16.85
36.22
57.48
78.17
94.31
101.60
97.03
80.43
55.12
27.32
4.41
-7.63
-6.19
7.01
26.59
45.72
58.66
62.73
58.71
49.65
38.82
27.99
16.92
4.18
-11.41
-29.59
-48.66
-66.27
-80.63
-91.28
-99.11
-105.62
-112.01
-118.53
-124.52
-129.06
-131.66
-132.75
-133.44
-135.01
-138.22
-143.04
-148.58
-153.65
-157.36
-159.57
-160.89
-162.32
-164.66
-168.08
-172.03
-175.46
-177.17
-176.14
-171.88
-164.62
-155.34
-145.24
-135.65
-127.65
-121.82
-118.02
-115.62
-113.79
-111.90
-109.55
-106.07
-101.01
-94.24
-86.08
-76.90
-67.06
-56.69
-45.79
-34.29
-21.04
-5.25
12.77
31.51
49.04
63.47
73.41
78.22
78.17
76.16
75.31
77.61
83.23
91.48
101.57
113.03
125.59
139.12
155.59
176.19
200.31
225.50
249.13
269.50
285.88
298.17
294.00
267.22
222.37
173.06
131.48
102.43
84.74
74.98
69.74
66.69
66.88
70.81
77.69
85.10
90.68
92.38
89.46
82.24
71.79
61.40
53.23
47.99
44.63
40.95
34.71
23.89
6.48
-20.11
-51.28
-85.17
-120.91
-158.27
-196.53
-233.84
-267.78
-296.54
-319.80
-338.00
-352.87
-364.93
-372.73
-373.15
-362.96
-340.97
-309.30
-272.78
-236.55
-204.54
-177.30
-152.45
-126.62
-97.46
-64.99
-31.54
-0.20
26.84
48.69
66.07
80.27
91.90
100.46
104.93
104.82
101.13
96.26
92.62
91.36
91.43
89.90
83.59
70.88
52.76
32.40
13.66
-0.89
-10.78
-17.28
-22.29
-26.95
-31.08
-33.57
-33.50
-31.16
-28.26
-27.31
-30.38
-37.84
-47.61
-55.52
-56.61
-47.04
-25.63
5.44
41.65
77.83
109.95
136.01
155.73
169.44
177.18
178.46
173.00
161.45
145.73
128.33
111.04
94.03
75.82
54.45
28.97
0.43
-28.11
-52.71
-69.92
-78.11
-77.67
-70.49
-58.84
-44.55
-28.82
-12.68
2.40
14.27
20.67
20.31
13.80
3.86
-5.62
-10.90
-9.62
-1.28
13.01
31.26
51.06
69.76
84.48
92.59
92.34
83.71
68.58
50.09
31.52
15.04
1.52
-9.26
-17.72
-24.22
-29.05
-33.07
-37.85
-45.32
-56.88
-72.69
-91.42
-110.92
-129.24
-145.25
-158.75
-169.90
-178.65
-184.53
-186.79
-184.82
-178.42
-167.89
-153.92
-137.46
-119.46
-100.71
-81.62
-62.36
-43.12
-24.34
-7.03
7.59
18.49
25.51
29.46
31.71
33.65
36.10
39.19
42.57
45.92
49.02
51.66
53.50
54.03
52.89
50.09
46.06
41.54
37.22
33.62
30.89
29.03
27.77
26.61
24.79
21.47
16.21
9.21
1.46
-5.63
-10.59
-12.36
-10.49
-5.14
3.07
13.23
24.25
34.90
44.06
50.87
54.97
56.56
56.27
54.91
53.16
51.53
50.13
48.85
47.44
45.70
43.68
41.73
40.38
40.08
40.87
42.37
43.88
44.74
44.62
43.69
42.44
41.26
40.16
38.70
36.30
32.80
28.79
25.68
25.04
27.93
34.14
42.15
49.67
54.58
55.85
53.78
49.57
44.50
39.07
32.77
24.48
13.24
-1.07
-17.53
-34.54
-50.46
-63.99
-74.14
-79.97
-80.59
-75.61
-65.81
-53.48
-41.91
-34.22
-31.90
-34.20
-38.78
-43.28
-46.85
-50.83
-58.06
-71.23
-91.29
-116.62
-143.40
-166.82
-182.76
-188.94
-185.54
-174.91
-160.73
-146.83
-136.10
-129.93
-128.28
-129.75
-132.72
-136.04
-139.07
-141.32
-141.97
-140.09
-134.85
-126.00
-113.41
-97.44
-78.80
-58.30
-36.66
-14.77
5.95
23.36
34.91
39.74
38.22
31.86
23.01
14.56
9.21
8.71
13.28
21.88
36.07
56.75
83.03
111.96
139.92
164.16
183.04
195.90
202.48
209.74
223.27
244.00
267.77
289.11
304.78
314.45
319.59
321.65
332.59
360.93
406.92
462.44
517.14
564.20
601.39
629.37
648.90
675.28
720.01
784.62
860.50
936.67
1006.78
1069.84
1127.45
1101.74
950.73
687.27
376.10
86.00
-146.55
-316.72
-435.81
-511.34
-565.70
-598.73
-606.85
-591.97
-564.03
-535.09
-513.48
-501.28
-497.52
-501.78
-501.66
-488.22
-460.67
-426.32
-394.50
-370.76
-355.77
-347.53
-344.27
-336.84
-319.24
-291.56
-259.51
-229.91
-206.69
-190.14
-178.66
-170.88
-161.93
-148.57
-130.30
-108.82
-86.06
-62.78
-38.84
-14.07
11.10
37.70
66.37
96.65
126.53
152.81
172.02
181.21
178.75
164.60
140.55
109.34
73.93
37.03
1.00
-32.06
-60.37
-82.60
-98.19
-107.35
-110.84
-109.65
-104.72
-96.91
-87.13
-76.42
-65.76
-55.82
-46.50
-36.98
-26.01
-12.45
4.12
23.10
42.79
60.94
75.19
83.76
86.07
82.87
76.08
68.05
60.82
55.42
51.85
49.40
47.33
45.34
43.49
41.96
40.53
38.44
34.59
28.09
18.64
6.74
-6.47
-19.72
-32.04
-43.11
-53.11
-62.57
-71.86
-80.94
-89.31
-96.08
-100.33
-101.38
-99.07
-93.82
-86.57
-78.54
-70.96
-64.86
-60.76
-58.82
-58.71
-59.95
-61.90
-64.06
-66.02
-67.61
-68.90
-70.12
-71.57
-73.46
-75.78
-78.41
-81.17
-83.99
-86.90
-90.02
-93.28
-96.43
-98.91
-100.04
-99.26
-96.27
-91.13
-84.22
-76.08
-67.11
-57.55
-47.37
-36.40
-24.55
-12.02
0.58
12.31
22.04
28.72
31.60
30.46
25.60
17.87
8.35
-1.78
-11.63
-20.64
-28.57
-35.35
-40.84
-44.85
-47.13
-47.63
-46.61
-44.66
-42.55
-41.02
-40.59
-41.48
-43.65
-46.69
-49.98
-52.73
-54.22
-54.11
-52.65
-50.70
-49.24
-48.92
-49.51
-49.83
-47.97
-42.13
-31.24
-15.58
3.26
22.83
40.46
53.92
61.77
63.49
59.28
49.88
36.45
20.46
3.68
-12.05
-25.05
-34.12
-38.94
-40.18
-39.28
-38.00
-37.85
-39.70
-43.71
-49.56
-56.91
-65.61
-75.91
-88.28
-103.26
-121.23
-142.27
-165.99
-191.43
-216.99
-240.48
-259.50
-271.95
-276.77
-274.16
-265.58
-253.11
-238.76
-223.92
-209.05
-193.91
-177.94
-160.63
-141.71
-121.03
-98.53
-74.07
-47.43
-18.41
13.41
48.71
88.41
133.07
181.95
232.48
280.31
320.46
349.04
364.67
368.82
364.90
356.85
347.71
339.22
332.07
326.37
321.63
316.36
307.66
291.76
265.54
228.34
183.00
135.19
91.40
56.60
32.62
18.18
10.19
5.51
2.20
-0.32
-1.96
-2.62
-2.60
-2.43
-2.44
-2.49
-2.13
-0.92
1.16
3.46
4.76
3.63
-1.04
-9.49
-20.92
-33.68
-45.94
-56.32
-64.45
-70.83
-76.49
-82.41
-89.18
-96.87
-105.21
-113.66
-121.37
-127.10
-129.20
-126.02
-116.40
-100.09
-78.08
-52.22
-24.84
1.85
26.13
46.88
63.56
76.11
84.78
90.03
92.41
92.52
90.95
88.32
85.18
81.97
78.76
75.38
71.44
66.64
60.97
54.73
48.46
42.62
37.28
32.08
26.22
18.74
8.91
-3.63
-18.64
-35.40
-52.83
-69.71
-84.82
-97.07
-105.57
-109.64
-109.00
-103.90
-95.39
-85.38
-76.44
-71.36
-72.58
-81.67
-98.85
-122.65
-149.86
-175.67
-194.71
-202.14
-195.18
-173.91
-141.27
-102.06
-61.39
-23.21
10.46
39.40
64.34
86.00
104.54
119.62
130.89
138.58
143.60
147.34
151.02
155.29
160.08
165.05
170.24
176.42
184.91
196.74
211.80
228.47
244.15
256.33
263.55
265.96
264.77
261.40
256.41
249.27
238.75
223.85
204.59
182.32
159.22
137.41
118.05
100.96
84.96
68.64
51.20
32.71
13.95
-4.12
-21.03
-36.81
-51.82
-66.35
-80.35
-93.54
-105.75
-117.14
-128.16
-139.15
-149.75
-158.77
-164.31
-164.44
-157.93
-144.83
-126.54
-105.44
-84.14
-64.69
-48.15
-34.54
-23.27
-13.77
-5.86
0.17
3.93
5.38
5.24
4.68
4.92
6.64
9.53
12.58
14.48
14.33
11.97
8.01
3.41
-0.95
-4.78
-8.33
-12.05
-16.29
-21.03
-26.00
-31.04
-36.35
-42.51
-50.08
-58.94
-67.85
-74.71
-77.07
-73.14
-62.39
-45.74
-25.05
-2.50
20.02
41.11
59.85
75.64
88.10
96.98
102.28
104.22
103.34
100.50
96.79
93.28
90.80
89.70
89.69
90.14
90.41
90.18
89.54
88.69
87.63
85.86
82.51
76.70
67.98
56.58
43.31
29.20
15.10
1.30
-12.34
-26.18
-40.44
-54.86
-68.56
-80.09
-87.88
-90.56
-87.47
-78.97
-66.35
-51.60
-36.84
-23.77
-13.33
-5.70
-0.57
2.50
3.80
3.42
1.45
-1.77
-5.57
-9.20
-12.11
-14.13
-15.55
-16.82
-18.23
-19.77
-21.13
-21.99
-22.28
-22.31
-22.64
-23.77
-25.95
-29.15
-33.14
-37.63
-42.44
-47.58
-53.16
-59.36
-66.10
-72.81
-78.17
-80.42
-77.84
-69.62
-56.21
-39.48
-22.03
-6.30
6.28
15.52
22.06
26.75
29.98
31.68
31.59
29.69
26.38
22.51
18.92
16.04
13.84
11.94
10.03
8.05
6.28
4.99
4.15
3.36
1.98
-0.52
-4.25
-8.90
-14.01
-19.22
-24.42
-29.68
-35.05
-40.60
-46.45
-52.91
-60.38
-69.06
-78.40
-86.80
-91.98
-91.60
-84.42
-70.88
-53.15
-34.40
-17.61
-4.67
4.00
9.12
11.83
13.00
13.05
12.03
9.92
6.89
3.28
-0.56
-4.44
-8.23
-11.87
-15.34
-18.60
-21.76
-25.05
-28.70
-32.86
-37.48
-42.29
-47.17
-52.12
-57.42
-63.56
-70.94
-79.71
-89.66
-100.12
-110.04
-118.22
-123.65
-125.78
-124.94
-122.32
-119.72
-118.70
-119.82
-122.12
-123.34
-120.74
-112.08
-96.22
-73.16
-43.63
-8.76
30.08
71.10
112.02
150.33
183.96
211.88
234.24
251.80
265.28
274.67
279.41
278.80
272.65
261.47
246.35
228.74
210.08
191.72
174.75
159.86
147.42
137.55
130.49
126.50
125.55
126.70
127.68
125.23
116.22
99.05
74.30
44.33
11.82
-21.79
-57.03
-95.58
-138.71
-185.55
-232.55
-274.38
-305.74
-323.04
-325.26
-313.67
-290.91
-260.13
-224.54
-187.47
-152.40
-122.70
-100.81
-87.61
-82.19
-82.31
-85.35
-89.37
-93.62
-98.26
-103.87
-110.70
-118.33
-125.81
-132.04
-136.24
-138.17
-138.21
-137.19
-136.12
-135.94
-137.19
-139.69
-142.45
-143.76
-141.53
-133.97
-120.34
-101.24
-78.55
-54.75
-31.88
-11.04
7.82
25.30
41.83
57.09
70.19
80.31
87.28
92.02
96.15
101.26
108.17
116.61
125.53
133.57
139.62
143.16
144.32
143.71
142.30
140.98
140.16
139.57
138.32
135.53
131.07
126.00
122.06
120.80
122.16
123.88
122.13
112.95
94.06
65.87
31.29
-5.49
-40.47
-71.00
-96.30
-117.19
-135.66
-154.14
-174.59
-197.51
-221.30
-242.28
-255.81
-257.89
-246.92
-224.53
-195.29
-165.43
-141.16
-127.30
-126.30
-137.87
-159.02
-184.60
-208.57
-225.60
-232.69
-229.97
-220.19
-207.23
-194.31
-182.89
-172.74
-162.86
-152.51
-141.67
-130.79
-120.23
-109.70
-98.35
-85.23
-69.71
-51.72
-31.75
-10.66
10.45
30.31
47.51
60.65
68.66
71.07
68.11
60.86
51.06
40.98
33.12
29.81
32.82
43.07
60.62
84.79
114.45
148.09
183.77
218.90
250.21
274.29
288.39
291.30
283.86
268.84
250.09
231.51
216.17
205.76
200.76
200.54
203.77
208.57
212.71
213.92
210.44
201.38
187.09
169.00
149.05
129.18
110.88
95.02
81.95
71.75
64.48
60.14
58.78
60.10
63.45
67.66
71.19
72.63
71.15
66.83
60.49
53.26
45.93
38.75
31.53
24.04
16.37
8.79
1.24
-7.10
-17.81
-32.77
-53.17
-78.67
-107.21
-135.34
-159.29
-176.04
-184.11
-183.65
-176.16
-163.66
-148.07
-130.85
-112.93
-95.24
-78.72
-64.48
-53.35
-45.60
-40.66
-37.32
-34.24
-30.35
-25.16
-18.81
-11.85
-4.98
1.09
5.90
9.25
11.29
12.63
14.40
18.23
26.12
39.76
60.07
86.68
117.84
150.89
183.00
211.96
236.67
257.00
273.46
286.52
296.35
302.80
305.67
304.94
300.89
293.88
284.28
272.30
258.12
241.92
224.11
205.21
185.88
166.70
148.08
130.17
112.92
96.32
80.44
65.50
51.78
39.46
28.50
18.63
9.51
0.73
-7.98
-16.81
-25.73
-34.58
-43.07
-50.83
-57.48
-62.69
-66.26
-68.05
-67.99
-66.14
-62.71
-58.07
-52.77
-47.58
-43.19
-40.12
-38.62
-38.49
-39.23
-40.20
-40.85
-40.97
-40.75
-40.64
-41.05
-42.08
-43.51
-44.93
-46.11
-47.12
-48.40
-50.40
-53.33
-57.02
-61.05
-65.05
-68.91
-72.81
-77.08
-81.94
-87.29
-92.69
-97.65
-101.83
-105.29
-108.49
-112.10
-116.63
-122.20
-128.49
-134.90
-140.63
-144.94
-147.08
-146.44
-142.77
-136.18
-127.20
-116.74
-105.77
-95.13
-85.26
-76.27
-68.01
-60.28
-52.94
-45.97
-39.38
-33.10
-26.88
-20.27
-12.84
-4.37
4.91
14.21
22.30
27.80
29.54
26.97
20.41
11.25
1.67
-5.97
-10.04
-10.61
-9.59
-10.26
-15.97
-28.78
-48.60
-73.33
-99.73
-124.60
-145.46
-160.87
-170.16
-173.11
-169.93
-161.25
-148.18
-132.16
-114.62
-96.72
-79.13
-62.12
-45.65
-29.67
-14.23
0.36
13.63
24.94
33.80
40.04
43.91
46.09
47.53
49.13
51.57
55.12
59.69
64.85
69.99
74.37
77.22
77.80
75.69
70.93
64.13
56.39
48.86
42.44
37.41
33.35
29.49
25.09
19.69
13.25
5.87
-2.23
-10.74
-18.94
-25.54
-28.96
-27.69
-21.07
-9.54
5.29
21.30
36.55
49.89
61.12
70.65
79.00
86.28
92.05
95.59
96.27
94.06
89.65
84.21
78.98
74.73
71.67
69.51
67.79
66.13
64.32
62.17
59.58
56.44
52.75
48.60
44.12
39.46
34.77
30.16
25.76
21.66
17.85
14.20
10.32
5.74
-0.03
-7.31
-16.09
-26.05
-36.49
-46.41
-54.64
-60.01
-61.64
-59.08
-52.46
-42.40
-29.90
-16.16
-2.29
10.85
22.75
33.24
42.25
49.65
55.17
58.50
59.48
58.34
55.59
52.07
48.49
45.32
42.64
40.31
38.24
36.44
35.06
34.15
33.51
32.70
31.26
28.93
25.71
21.83
17.45
12.61
7.24
1.36
-4.87
-11.21
-17.49
-23.89
-30.87
-38.90
-48.05
-57.68
-66.48
-72.80
-75.16
-72.68
-65.39
-54.09
-40.17
-25.18
-10.44
3.19
15.40
26.12
35.29
42.67
47.92
50.80
51.45
50.34
48.22
45.76
43.43
41.40
39.61
37.94
36.30
34.63
32.88
31.04
29.06
26.88
24.37
21.36
17.59
12.91
7.28
1.03
-5.24
-10.92
-15.59
-19.31
-22.60
-26.25
-30.92
-36.94
-44.11
-51.78
-59.07
-64.91
-68.28
-68.27
-64.20
-55.99
-44.18
-29.98
-14.98
-0.61
12.32
23.71
33.82
42.83
50.49
56.25
59.70
60.94
60.74
60.18
60.13
60.87
62.08
63.28
64.26
65.34
67.13
70.01
73.72
77.29
79.41
79.06
76.08
71.35
66.50
63.35
63.30
66.78
73.10
80.55
86.92
89.93
87.83
79.90
66.47
48.90
29.11
9.02
-9.81
-26.43
-40.35
-51.28
-58.83
-62.45
-61.62
-56.14
-46.55
-34.16
-20.86
-8.63
1.05
7.65
11.35
12.74
12.15
9.42
4.14
-3.73
-13.38
-23.04
-30.49
-33.98
-32.94
-28.09
-21.10
-13.77
-7.48
-2.96
-0.57
-0.52
-2.99
-7.97
-15.05
-23.47
-32.43
-41.55
-50.93
-60.70
-70.42
-78.60
-83.17
-82.29
-75.74
-65.39
-54.98
-48.66
-49.54
-58.60
-74.65
-95.03
-116.58
-136.43
-152.22
-162.06
-164.58
-159.14
-146.08
-126.83
-103.67
-79.02
-54.98
-32.89
-13.38
3.53
17.99
30.31
40.84
50.04
58.37
66.21
73.71
80.83
87.35
93.11
98.20
102.91
107.60
112.51
117.57
122.32
125.99
127.62
126.22
120.96
111.33
97.20
79.07
57.96
35.34
12.79
-8.32
-27.29
-43.92
-58.51
-71.46
-82.86
-92.37
-99.37
-103.17
-103.22
-99.36
-91.74
-80.82
-67.29
-52.03
-35.98
-19.99
-4.60
10.06
24.04
37.34
49.58
60.00
67.82
72.63
74.57
74.33
72.68
70.09
66.65
62.31
57.29
52.37
48.61
46.90
47.37
49.31
51.32
52.02
50.53
46.74
41.30
35.35
30.27
27.40
27.68
31.52
38.50
47.36
55.99
61.95
62.96
57.50
45.33
27.77
7.49
-11.92
-26.93
-35.08
-35.74
-30.32
-21.59
-12.81
-6.62
-4.57
-7.16
-14.29
-25.73
-41.29
-60.56
-82.54
-105.47
-127.13
-145.56
-159.74
-169.93
-177.42
-183.86
-190.40
-197.03
-202.63
-205.34
-203.59
-196.71
-185.44
-171.56
-157.09
-143.58
-131.64
-121.11
-111.50
-102.58
-94.63
-88.15
-83.53
-80.69
-79.24
-78.73
-79.06
-80.40
-83.03
-86.96
-91.55
-95.72
-98.01
-97.06
-91.88
-82.04
-67.82
-50.21
-30.84
-11.50
6.10
20.96
32.77
41.91
48.93
54.11
57.36
58.41
57.16
54.01
49.82
45.58
41.95
39.04
36.46
33.59
29.92
25.27
19.74
13.64
7.49
1.98
-2.02
-3.77
-2.91
0.30
5.01
10.15
14.87
18.80
22.00
24.79
27.39
29.95
32.42
34.70
36.65
38.07
38.88
39.24
39.83
41.92
47.17
56.97
71.87
91.25
113.35
135.92
156.95
175.19
190.38
203.03
214.08
224.57
235.39
247.23
260.47
274.98
289.87
303.32
312.68
315.09
308.21
290.94
263.69
228.43
188.20
146.65
107.54
74.02
48.31
31.08
21.49
17.39
16.05
15.01
12.71
8.78
3.59
-2.26
-8.39
-14.76
-21.47
-28.39
-35.22
-41.42
-46.47
-49.92
-51.34
-50.35
-46.63
-40.06
-30.89
-19.61
-6.86
6.88
21.32
36.42
52.13
68.34
84.66
100.43
114.78
126.66
135.09
139.46
139.75
136.64
131.33
125.11
118.90
113.04
107.35
101.36
94.66
87.05
78.51
69.19
59.27
48.94
38.38
27.77
17.27
6.99
-2.96
-12.52
-21.68
-30.41
-38.78
-46.93
-55.15
-63.97
-74.17
-86.71
-102.30
-121.04
-141.92
-162.99
-181.66
-195.55
-203.32
-205.07
-202.31
-197.35
-192.42
-189.07
-187.71
-187.68
-187.57
-185.78
-181.04
-172.91
-161.81
-148.93
-135.83
-123.95
-114.23
-106.95
-101.95
-98.79
-97.08
-96.53
-96.93
-98.11
-99.83
-101.84
-103.95
-106.06
-108.22
-110.84
-114.59
-120.30
-128.69
-139.93
-153.42
-167.61
-180.25
-188.92
-191.72
-188.04
-178.83
-166.39
-153.56
-142.84
-135.56
-131.63
-129.89
-128.80
-127.06
-124.06
-119.71
-114.11
-107.40
-99.64
-90.96
-81.84
-72.88
-64.67
-57.48
-51.12
-45.02
-38.62
-31.44
-23.41
-14.85
-6.29
1.67
8.58
14.27
18.77
22.27
25.01
27.06
28.37
28.74
28.03
26.25
23.72
20.98
18.68
17.50
17.97
20.42
25.07
32.05
41.40
53.06
66.77
81.96
97.77
113.29
127.67
140.25
150.58
158.28
162.87
163.93
161.18
154.63
144.65
131.91
117.26
101.63
86.04
71.49
58.88
48.53
40.17
32.86
25.41
16.90
7.14
-3.32
-13.39
-22.01
-28.56
-33.15
-36.52
-39.70
-43.50
-48.27
-53.78
-59.21
-63.40
-65.14
-63.27
-56.91
-45.87
-30.84
-13.69
2.90
16.13
24.13
26.75
25.61
23.12
21.24
20.51
19.92
17.76
12.83
5.18
-3.84
-12.41
-19.02
-23.11
-24.95
-25.15
-24.25
-22.44
-19.68
-15.92
-11.47
-7.08
-3.85
-2.88
-4.87
-9.83
-17.00
-25.28
-33.71
-41.80
-49.47
-56.65
-62.94
-67.64
-70.04
-69.91
-67.60
-63.73
-58.70
-52.41
-44.42
-34.46
-22.90
-10.73
0.85
10.96
19.39
26.42
32.33
37.04
40.05
40.84
39.25
35.87
31.82
28.38
26.42
26.04
26.67
27.37
27.41
26.57
25.16
23.73
22.67
22.02
21.54
20.93
20.08
19.01
17.74
16.15
13.91
10.66
6.27
0.98
-4.73
-10.40
-15.87
-21.36
-27.32
-34.08
-41.47
-48.66
-54.38
-57.37
-56.96
-53.33
-47.32
-40.12
-32.64
-25.31
-18.02
-10.39
-2.28
6.20
14.51
22.01
28.13
32.59
35.42
36.89
37.37
37.18
36.47
35.38
34.03
32.72
31.92
32.09
33.35
35.31
37.15
37.85
36.76
33.86
29.81
25.53
21.72
18.53
15.60
12.41
8.65
4.47
0.38
-2.94
-5.06
-5.85
-5.57
-4.65
-3.65
-3.12
-3.54
-5.19
-7.83
-10.51
-11.57
-9.20
-2.07
9.90
25.39
41.96
56.87
68.07
74.72
77.22
76.64
74.09
70.18
65.04
58.59
50.92
42.51
34.10
26.47
20.10
15.03
10.89
7.08
3.17
-1.00
-5.20
-9.03
-12.18
-14.54
-16.32
-18.00
-20.03
-22.72
-26.06
-29.80
-33.58
-37.14
-40.30
-43.03
-45.28
-46.95
-47.93
-48.24
-48.01
-47.51
-47.12
-47.27
-48.49
-51.22
-55.67
-61.50
-67.74
-72.84
-75.13
-73.51
-67.83
-59.21
-49.40
-40.26
-32.96
-27.86
-24.58
-22.40
-20.67
-18.84
-16.56
-13.46
-9.24
-3.70
3.14
10.90
18.91
26.32
32.48
37.06
40.27
42.45
43.94
44.77
44.63
43.09
39.81
34.72
28.05
20.22
11.54
2.23
-7.42
-16.90
-25.24
-31.24
-33.82
-32.61
-28.16
-21.89
-15.63
-11.08
-9.48
-11.32
-16.34
-23.54
-31.14
-36.75
-37.89
-32.68
-20.57
-2.73
18.31
39.54
58.44
73.57
84.69
92.27
97.04
99.57
100.31
99.68
98.10
96.05
93.85
91.66
89.49
87.22
84.77
82.14
79.33
76.30
72.89
69.00
64.60
59.85
55.07
50.50
46.19
41.91
37.30
32.12
26.39
20.56
15.19
10.71
7.11
3.99
0.80
-2.88
-7.17
-12.00
-17.35
-23.48
-30.67
-39.01
-47.96
-56.21
-62.10
-64.14
-61.67
-55.07
-45.58
-34.69
-23.71
-13.56
-4.92
1.51
4.88
4.38
-0.39
-9.08
-20.37
-32.31
-42.69
-49.69
-52.28
-50.37
-44.57
-35.78
-24.81
-12.12
2.00
17.27
33.12
48.60
62.60
74.12
82.64
88.29
91.73
93.87
95.46
96.71
97.25
96.20
92.54
85.68
75.61
63.12
49.47
35.99
23.56
12.34
1.80
-8.94
-20.61
-33.47
-47.05
-60.67
-73.75
-86.28
-98.74
-111.59
-124.72
-137.19
-147.63
-154.94
-159.00
-160.80
-161.88
-163.39
-165.49
-167.33
-167.61
-165.35
-160.11
-151.93
-141.02
-127.27
-110.50
-90.62
-68.09
-44.19
-20.54
1.32
20.61
37.74
53.99
70.80
88.91
107.78
125.45
139.34
147.13
147.60
141.10
129.38
114.75
99.48
85.05
71.91
59.52
46.67
32.08
14.84
-5.16
-27.35
-50.54
-73.23
-93.92
-111.23
-124.04
-131.72
-134.25
-132.28
-127.04
-120.01
-112.56
-105.66
-99.69
-94.47
-89.45
-84.00
-77.75
-70.87
-63.89
-57.51
-52.15
-47.59
-43.14
-38.17
-32.55
-27.15
-23.42
-22.78
-25.81
-31.76
-38.61
-43.57
-43.99
-38.15
-26.06
-9.57
8.06
23.09
32.41
34.64
30.46
22.26
13.28
6.37
3.26
4.46
9.70
18.60
31.08
47.34
67.52
91.33
117.66
144.60
169.48
188.99
199.64
198.33
183.18
154.45
114.95
69.62
24.26
-16.22
-49.17
-74.60
-94.50
-111.44
-127.47
-143.56
-159.76
-175.53
-190.00
-201.92
-209.48
-210.55
-203.04
-185.62
-158.15
-121.99
-79.82
-35.31
7.70
45.83
76.88
100.22
116.64
127.95
136.19
143.00
149.09
154.10
156.76
155.22
147.72
133.58
113.94
92.16
73.18
62.05
62.01
73.37
93.30
117.11
139.92
158.09
169.95
175.59
176.25
173.60
169.23
164.31
159.49
154.94
150.58
146.23
141.69
136.89
131.59
125.47
118.21
109.71
100.44
91.42
83.75
78.15
74.56
72.01
69.07
64.53
57.92
49.85
41.76
35.33
31.79
31.33
33.09
35.58
37.35
37.56
36.18
33.90
31.93
31.75
34.92
42.85
56.44
75.62
98.93
123.83
147.16
166.24
179.53
186.90
189.15
187.28
181.82
172.54
158.67
139.46
114.83
85.74
54.05
22.14
-7.73
-33.90
-55.41
-71.93
-83.43
-90.18
-92.76
-92.20
-89.91
-87.51
-86.30
-86.97
-89.42
-92.93
-96.64
-99.76
-101.78
-102.39
-101.48
-99.21
-96.05
-92.83
-90.38
-89.02
-87.96
-85.38
-79.01
-67.24
-50.05
-29.28
-8.06
10.41
24.03
32.24
35.68
35.45
32.36
26.79
18.94
9.18
-1.77
-13.13
-24.38
-35.43
-46.40
-57.31
-67.79
-77.05
-84.36
-89.20
-91.57
-91.96
-91.19
-90.26
-90.28
-92.22
-96.75
-103.87
-112.76
-121.96
-129.83
-135.16
-137.61
-137.63
-136.05
-133.60
-130.67
-127.31
-123.52
-119.44
-115.42
-111.80
-108.63
-105.46
-101.35
-95.21
-86.19
-74.14
-59.68
-43.85
-27.99
-13.04
0.46
12.53
23.40
33.27
42.10
49.56
55.26
58.85
60.33
59.90
58.08
55.33
52.05
48.36
44.14
39.25
33.79
28.18
23.08
19.10
16.38
14.59
12.95
10.59
6.90
1.66
-4.83
-11.97
-18.99
-25.24
-30.36
-34.40
-37.85
-41.41
-45.72
-51.06
-57.09
-62.72
-66.58
-67.33
-64.20
-57.31
-47.42
-35.75
-23.44
-11.27
0.32
11.16
21.07
29.71
36.56
41.25
43.75
44.46
44.06
43.25
42.55
42.10
41.76
41.16
39.93
37.81
34.77
31.04
27.10
23.46
20.47
18.20
16.30
14.34
12.02
9.28
6.31
3.24
0.16
-3.03
-6.36
-9.66
-12.65
-15.14
-17.28
-19.53
-22.58
-26.86
-32.21
-37.89
-42.74
-45.59
-45.62
-42.51
-36.54
-28.46
-19.27
-10.02
-1.41
6.23
12.98
19.06
24.61
29.62
33.87
37.12
39.24
40.23
40.25
39.52
38.35
36.98
35.56
34.12
32.63
30.93
28.90
26.52
23.78
20.73
17.53
14.32
11.39
8.92
6.94
5.21
3.44
1.42
-0.77
-2.97
-5.03
-7.01
-9.29
-12.33
-16.39
-21.41
-27.04
-32.74
-37.70
-40.62
-39.80
-33.58
-21.36
-4.42
13.98
29.54
38.65
39.89
34.67
26.45
19.13
15.34
15.78
19.36
24.36
29.27
33.36
36.41
38.34
38.97
38.08
35.66
32.05
28.00
24.33
21.68
20.31
20.04
20.47
21.11
21.42
20.83
18.84
15.09
9.60
2.79
-4.52
-11.46
-17.35
-21.97
-25.48
-28.22
-30.59
-32.86
-35.24
-37.97
-41.32
-45.44
-50.16
-54.72
-57.89
-58.30
-55.12
-48.41
-39.25
-29.29
-20.10
-12.66
-7.02
-2.61
1.29
5.07
8.69
11.77
14.05
15.70
17.27
19.37
22.13
25.12
27.62
28.96
29.07
28.32
27.32
26.48
25.85
25.22
24.46
23.71
23.19
23.00
22.73
21.58
18.71
13.67
6.72
-1.16
-8.63
-14.51
-18.26
-20.03
-20.68
-21.36
-23.07
-26.29
-30.77
-35.74
-40.11
-42.82
-43.20
-41.06
-36.79
-31.11
-24.86
-18.65
-12.75
-7.21
-2.02
2.53
5.85
7.27
6.50
3.88
0.32
-3.01
-5.25
-6.21
-6.34
-6.34
-6.91
-8.47
-11.16
-14.93
-19.50
-24.41
-29.06
-32.89
-35.76
-38.14
-41.09
-45.81
-53.27
-63.57
-75.78
-87.93
-97.46
-101.84
-99.43
-90.16
-75.88
-60.24
-47.63
-41.78
-44.33
-53.82
-65.94
-74.54
-73.50
-58.67
-28.96
13.50
64.25
117.83
169.20
214.51
251.35
278.34
294.85
300.92
297.41
286.11
269.55
250.45
230.87
211.68
192.49
172.19
149.85
125.34
99.61
74.17
50.37
28.62
8.34
-11.42
-31.08
-49.58
-64.51
-72.98
-72.98
-64.60
-50.39
-34.55
-21.50
-14.44
-14.57
-21.20
-32.47
-46.56
-62.26
-79.04
-96.91
-115.78
-135.25
-154.62
-172.89
-189.05
-202.12
-211.19
-215.46
-214.32
-207.56
-195.46
-178.88
-159.02
-137.28
-114.93
-93.19
-73.31
-56.75
-45.02
-39.43
-40.75
-48.89
-62.91
-81.15
-101.70
-122.63
-142.34
-159.54
-173.47
-183.97
-191.41
-196.75
-201.09
-205.29
-209.59
-213.50
-216.05
-216.26
-213.62
-208.27
-200.96
-192.79
-184.96
-178.55
-174.43
-173.21
-175.08
-179.52
-185.25
-190.35
-192.72
-190.57
-183.06
-170.39
-153.66
-134.35
-113.91
-93.35
-73.20
-53.58
-34.30
-15.08
4.45
24.76
46.40
69.89
95.56
123.04
151.01
177.06
198.33
212.49
218.79
218.59
214.83
210.81
208.75
209.02
210.38
210.98
209.54
205.93
200.97
195.67
190.63
185.72
180.53
174.75
168.50
162.30
156.69
151.95
148.03
144.72
142.19
141.41
144.26
153.18
170.30
196.52
230.88
270.44
311.05
348.37
378.80
400.00
410.78
410.68
399.91
379.36
350.92
317.55
282.91
250.46
222.48
199.58
180.72
163.98
147.57
130.50
112.83
95.31
78.75
63.68
50.37
38.93
29.61
22.92
19.17
18.26
19.38
21.34
22.92
23.50
23.33
23.38
24.88
28.85
35.74
45.36
56.96
69.44
81.51
91.92
99.53
103.55
103.44
99.02
90.28
77.41
60.79
41.06
19.29
-3.02
-24.22
-42.68
-57.21
-67.40
-73.50
-76.18
-76.15
-73.98
-70.04
-64.81
-59.11
-54.20
-51.27
-50.95
-52.84
-55.58
-57.49
-57.33
-55.06
-51.83
-49.48
-49.72
-53.33
-60.16
-69.31
-79.88
-91.22
-103.13
-115.62
-128.50
-141.24
-153.14
-163.57
-172.27
-179.25
-184.58
-188.18
-189.61
-188.37
-184.07
-176.70
-166.76
-155.03
-142.46
-129.94
-118.10
-107.08
-96.63
-86.29
-75.74
-65.14
-55.17
-46.71
-40.34
-35.95
-32.62
-28.94
-23.67
-16.29
-7.16
2.60
11.59
18.71
23.43
25.72
25.82
23.94
20.16
14.61
7.68
0.12
-6.99
-12.69
-16.48
-18.40
-18.90
-18.56
-17.91
-17.53
-17.94
-19.74
-23.20
-28.14
-33.79
-39.21
-43.55
-46.40
-47.74
-47.58
-45.81
-42.09
-36.32
-28.90
-20.80
-13.22
-7.11
-2.84
-0.13
1.56
2.73
3.64
4.37
4.87
5.17
5.29
5.04
4.28
2.94
1.21
-0.36
-1.21
-1.08
-0.21
0.73
1.05
0.31
-1.49
-4.03
-6.92
-9.83
-12.48
-14.61
-15.90
-16.21
-15.66
-14.83
-14.56
-15.68
-18.60
-23.13
-28.44
-33.30
-36.45
-36.95
-34.55
-29.70
-23.31
-16.43
-9.86
-3.88
1.51
6.38
10.62
13.96
16.21
17.47
18.21
19.05
20.40
22.22
24.17
25.81
26.96
27.76
28.48
29.30
30.08
30.50
30.05
28.38
25.47
21.61
17.26
12.84
8.54
4.35
0.09
-4.36
-8.89
-13.16
-16.76
-19.48
-21.51
-23.45
-26.03
-29.73
-34.56
-39.95
-44.95
-48.50
-49.75
-48.38
-44.54
-38.86
-32.17
-25.23
-18.60
-12.63
-7.61
-3.72
-1.08
0.46
1.18
1.43
1.32
0.54
-1.49
-5.24
-10.72
-17.18
-23.30
-27.68
-29.31
-27.95
-24.12
-18.80
-13.06
-7.82
-3.68
-1.00
0.17
-0.05
-1.40
-3.59
-6.27
-8.98
-11.27
-12.64
-12.92
-12.35
-11.65
-11.74
-13.46
-17.09
-22.26
-27.89
-32.55
-34.90
-34.02
-29.60
-22.13
-12.64
-2.50
6.89
14.51
20.01
23.75
26.51
29.22
32.42
36.10
39.72
42.47
43.70
43.14
41.08
38.16
35.07
32.12
29.35
26.56
23.61
20.65
18.05
16.15
15.05
14.64
14.64
14.77
14.81
14.45
13.43
11.58
9.10
6.57
4.72
4.03
4.32
4.86
4.56
2.71
-0.93
-5.95
-11.71
-17.55
-22.87
-27.06
-29.43
-29.23
-26.01
-19.85
-11.34
-1.43
8.88
18.80
27.79
35.44
41.43
45.53
47.53
47.55
46.01
43.60
41.15
39.31
38.30
37.83
37.26
35.89
33.35
29.71
25.33
20.72
16.20
11.93
8.02
4.56
1.66
-0.57
-2.26
-3.66
-5.04
-6.37
-7.49
-8.14
-8.32
-8.44
-9.28
-11.66
-16.04
-22.22
-29.35
-36.11
-41.13
-43.27
-41.96
-37.27
-29.97
-21.31
-12.77
-5.54
-0.31
2.87
4.42
4.96
5.06
5.06
5.14
5.40
6.02
7.07
8.49
10.06
11.37
12.08
12.03
11.31
10.23
9.21
8.58
8.53
9.15
10.29
11.82
13.60
15.40
17.03
18.07
18.05
16.50
13.17
8.08
1.80
-4.88
-11.24
-17.03
-22.48
-28.07
-34.01
-39.93
-44.93
-47.70
-47.31
-43.36
-36.37
-27.47
-17.99
-8.98
-0.84
6.44
13.05
18.86
23.33
25.72
25.40
22.40
17.62
12.55
8.70
6.91
7.02
8.06
8.87
8.60
7.20
5.29
3.66
2.77
2.55
2.46
1.77
0.12
-2.39
-5.18
-7.65
-9.41
-10.67
-11.96
-13.95
-17.07
-21.40
-26.90
-33.65
-42.01
-52.34
-64.41
-76.82
-87.08
-92.17
-89.65
-78.86
-61.21
-39.77
-18.14
0.82
15.67
26.48
34.34
40.65
46.54
52.73
59.38
66.20
72.57
77.49
79.81
78.39
72.33
61.36
46.02
27.75
8.66
-8.92
-23.20
-33.40
-39.94
-44.14
-47.52
-51.25
-55.81
-61.09
-66.61
-71.84
-76.22
-79.19
-80.08
-78.40
-74.25
-68.56
-62.91
-58.88
-57.47
-58.47
-60.71
-62.69
-63.17
-61.78
-58.83
-54.83
-50.02
-43.95
-35.74
-24.54
-10.02
7.45
26.89
47.08
67.06
86.20
103.98
119.69
132.30
140.62
143.83
142.01
136.31
128.57
120.68
113.86
108.40
103.79
99.21
94.05
88.11
81.48
74.24
66.30
57.47
47.63
36.99
26.20
16.01
7.08
-0.35
-6.57
-12.09
-17.26
-22.12
-26.37
-29.64
-31.76
-32.84
-33.20
-33.30
-33.52
-34.20
-35.41
-36.90
-38.03
-37.86
-35.30
-29.63
-20.90
-10.04
1.30
11.41
19.01
23.59
25.39
25.08
23.20
20.09
15.95
11.14
6.48
3.08
1.83
2.90
5.51
8.03
8.86
7.08
2.88
-2.63
-7.93
-11.71
-13.38
-13.15
-11.82
-10.29
-9.33
-9.30
-10.07
-11.08
-11.53
-10.56
-7.61
-2.68
3.59
9.97
14.97
17.26
15.90
10.83
2.89
-6.33
-14.90
-21.13
-23.91
-23.09
-19.29
-13.75
-7.82
-2.58
1.42
4.19
5.96
6.87
6.88
5.84
3.66
0.53
-3.25
-7.49
-12.21
-17.74
-24.47
-32.58
-41.72
-51.09
-59.78
-67.38
-74.17
-81.18
-89.69
-100.70
-114.47
-130.36
-147.14
-163.27
-177.15
-187.25
-192.30
-191.39
-184.28
-171.59
-154.76
-135.69
-116.11
-97.04
-78.53
-59.70
-39.25
-15.88
11.00
41.08
73.07
105.01
135.02
161.73
184.87
204.94
222.82
238.92
252.88
263.52
269.26
268.59
260.54
245.04
222.95
196.14
167.31
139.59
115.98
98.58
88.36
85.00
87.29
93.24
100.44
106.21
107.81
103.07
90.78
71.34
46.77
20.60
-3.02
-20.50
-29.87
-31.63
-28.41
-24.21
-22.84
-26.65
-35.82
-48.57
-62.09
-73.72
-81.82
-85.87
-86.22
-83.50
-78.30
-71.11
-62.29
-52.32
-41.64
-30.77
-20.19
-10.29
-1.45
6.10
12.06
16.38
19.19
20.87
22.02
23.37
25.43
28.42
32.05
35.42
37.52
37.42
34.73
29.71
23.13
15.93
8.87
2.41
-3.47
-8.96
-14.45
-20.18
-26.12
-31.95
-37.19
-41.36
-44.19
-45.72
-46.33
-46.52
-46.78
-47.48
-48.95
-51.29
-54.40
-57.89
-60.96
-62.69
-62.39
-59.85
-55.47
-50.01
-44.18
-38.49
-33.16
-28.34
-24.29
-21.32
-19.65
-19.29
-19.93
-21.13
-22.56
-24.10
-25.69
-27.24
-28.51
-29.18
-29.16
-28.70
-28.45
-28.99
-30.49
-32.48
-34.01
-34.15
-32.50
-29.41
-25.74
-22.38
-19.88
-18.24
-17.12
-16.20
-15.27
-14.31
-13.44
-12.75
-12.47
-12.83
-14.16
-16.69
-20.36
-24.69
-28.80
-31.55
-31.85
-28.99
-22.90
-14.29
-4.40
5.36
13.87
20.65
25.77
29.56
32.15
33.33
32.72
30.24
26.42
22.33
19.08
17.18
16.46
16.14
15.49
14.16
12.24
10.07
7.84
5.63
3.47
1.49
-0.12
-1.31
-2.35
-3.79
-6.12
-9.45
-13.30
-17.01
-20.03
-22.36
-24.39
-26.75
-29.84
-33.73
-38.13
-42.51
-46.29
-48.80
-49.48
-47.91
-43.96
-37.85
-30.10
-21.53
-12.95
-5.20
1.02
5.22
7.22
7.22
5.86
4.04
2.69
2.44
3.41
5.22
7.23
8.83
9.75
10.06
10.09
10.17
10.51
11.16
12.17
13.62
15.50
17.57
19.38
20.30
19.72
17.54
14.22
10.60
7.51
5.20
3.15
0.17
-4.90
-12.43
-21.41
-29.50
-33.82
-31.94
-23.00
-8.05
10.38
29.10
45.32
57.33
64.60
67.56
67.11
64.27
59.78
54.02
47.13
39.27
30.83
22.58
15.42
10.08
6.56
4.17
1.91
-0.90
-4.16
-7.03
-8.47
-8.11
-6.48
-4.80
-4.21
-5.17
-7.19
-9.17
-10.06
-9.50
-7.71
-5.34
-2.92
-0.67
1.56
4.00
6.82
10.07
13.75
17.78
21.97
25.99
29.38
31.66
32.42
31.58
29.28
26.06
22.78
20.21
18.93
18.88
19.46
19.64
18.55
15.80
11.58
6.51
1.06
-4.64
-10.66
-17.07
-23.51
-29.26
-33.48
-35.84
-36.69
-36.98
-37.85
-39.95
-43.17
-46.83
-50.28
-53.24
-56.21
-60.06
-65.63
-72.99
-81.48
-89.96
-97.47
-103.97
-110.18
-117.25
-126.04
-136.80
-148.95
-161.60
-173.66
-183.90
-190.77
-192.59
-187.86
-176.14
-158.54
-137.75
-117.17
-99.79
-87.05
-78.59
-72.84
-68.08
-63.27
-58.30
-53.64
-49.51
-45.59
-41.11
-35.52
-29.12
-22.98
-18.27
-15.29
-12.76
-8.27
0.56
14.59
32.43
51.06
67.18
78.69
85.48
88.92
90.69
91.86
92.48
92.07
90.24
87.21
83.55
79.73
75.54
70.00
61.59
49.11
32.25
12.19
-8.55
-26.69
-39.07
-43.57
-39.90
-29.35
-14.27
2.79
19.99
36.40
51.85
66.42
80.07
92.49
103.28
112.13
119.12
124.72
129.53
134.11
138.66
143.17
147.65
152.28
157.51
163.81
171.32
179.61
187.64
194.29
198.76
201.18
202.45
203.92
206.62
210.57
214.48
215.78
211.09
196.75
169.79
128.73
74.42
10.35
-57.62
-122.16
-176.09
-213.86
-232.71
-232.92
-217.26
-189.90
-155.38
-117.93
-80.96
-46.94
-17.24
7.97
29.46
48.56
66.30
82.96
98.03
110.65
120.26
126.93
131.37
134.17
135.54
135.00
131.79
125.38
115.99
104.55
92.42
80.92
70.81
62.28
54.97
48.26
41.55
34.39
26.66
18.49
10.26
2.30
-5.12
-12.00
-18.43
-24.51
-30.36
-36.02
-41.57
-47.07
-52.61
-58.06
-62.99
-66.74
-68.43
-67.39
-63.47
-57.23
-49.85
-42.79
-37.26
-33.84
-32.39
-32.14
-32.20
-31.94
-31.21
-30.37
-29.92
-30.26
-31.54
-33.83
-37.19
-41.65
-47.20
-53.52
-59.94
-65.55
-69.59
-72.08
-73.84
-76.19
-80.17
-85.66
-90.97
-93.12
-89.07
-76.84
-56.48
-30.13
-1.39
26.01
49.30
67.25
80.10
88.96
95.14
99.61
102.88
105.15
106.45
106.66
105.23
100.94
91.85
76.11
52.87
23.24
-9.64
-41.56
-68.50
-88.13
-100.03
-105.25
-105.20
-100.90
-92.72
-81.00
-66.60
-51.15
-36.59
-24.45
-15.33
-8.50
-2.45
4.46
13.13
23.39
33.90
42.67
47.78
48.00
43.24
34.40
22.90
10.15
-2.73
-14.85
-25.63
-34.73
-42.33
-49.17
-56.29
-64.27
-72.34
-78.01
-77.75
-68.42
-48.99
-21.34
10.11
39.92
63.63
79.12
86.62
87.95
85.25
80.31
74.21
67.66
61.25
55.24
49.52
43.43
36.09
26.81
15.62
3.30
-8.92
-19.78
-28.48
-34.70
-38.61
-40.72
-41.79
-42.74
-44.83
-49.17
-56.53
-66.85
-79.26
-92.28
-104.48
-115.02
-123.86
-131.69
-139.30
-147.36
-156.03
-165.16
-174.33
-182.84
-189.43
-192.32
-189.49
-179.28
-161.23
-136.37
-107.07
-76.20
-46.43
-19.65
3.18
21.79
36.54
48.11
57.37
65.24
72.14
78.06
82.61
85.51
86.96
87.78
89.16
91.99
96.52
102.17
107.94
112.72
115.76
116.74
115.60
112.43
107.48
101.16
93.97
86.62
79.74
73.66
68.23
62.82
56.62
48.85
39.23
28.01
16.10
4.77
-4.57
-10.64
-12.69
-10.68
-5.34
2.14
10.34
18.09
24.74
29.99
33.86
36.29
37.18
36.33
33.71
29.67
24.92
20.32
16.59
14.13
12.80
12.21
11.91
11.65
11.38
11.21
11.05
10.54
9.15
6.49
2.65
-1.79
-5.92
-9.09
-11.25
-13.15
-15.92
-20.36
-26.63
-34.14
-42.06
-49.91
-57.64
-65.34
-72.54
-77.89
-79.48
-75.73
-66.43
-52.92
-37.68
-23.06
-10.21
1.09
11.91
23.05
34.26
44.34
51.89
56.24
57.88
58.25
58.86
60.51
62.99
65.31
66.39
65.78
63.71
60.91
58.01
55.16
52.11
48.31
43.37
37.12
29.63
21.06
11.73
2.09
-7.25
-15.59
-22.47
-27.97
-32.71
-37.84
-44.54
-53.54
-64.78
-77.24
-89.12
-98.26
-102.58
-100.66
-92.29
-78.49
-61.29
-43.21
-26.55
-12.76
-2.25
5.49
11.48
16.63
21.44
25.72
28.92
30.48
30.28
28.73
26.66
24.94
24.13
24.16
24.49
24.31
23.05
20.60
17.31
13.71
10.15
6.61
2.75
-1.89
-7.52
-13.86
-20.34
-26.31
-31.45
-35.90
-40.17
-44.88
-50.53
-57.37
-65.53
-75.02
-85.82
-97.43
-108.63
-117.38
-121.36
-118.71
-108.97
-93.30
-74.05
-53.95
-35.04
-18.27
-3.63
9.19
20.38
29.60
36.25
39.76
39.99
37.31
32.44
26.32
19.77
13.44
7.63
2.36
-2.65
-7.95
-14.22
-22.21
-32.39
-44.74
-58.70
-73.28
-87.17
-99.13
-108.23
-113.87
-115.85
-114.24
-109.28
-101.49
-91.67
-80.82
-70.13
-60.86
-54.05
-50.57
-50.95
-55.50
-64.29
-77.07
-93.04
-110.69
-127.91
-142.13
-150.80
-151.94
-144.44
-128.25
-104.44
-75.20
-43.42
-12.25
15.80
39.26
58.21
73.62
86.54
97.39
105.74
110.89
112.63
111.73
109.64
107.91
107.34
107.79
108.39
108.19
106.66
103.76
99.84
95.32
90.69
86.39
82.84
80.21
78.23
76.21
73.20
68.52
62.07
54.40
46.50
39.17
32.69
26.56
19.96
12.09
2.46
-8.86
-21.28
-33.80
-44.94
-52.86
-55.61
-51.69
-40.60
-23.22
-1.59
21.68
44.18
64.38
81.57
95.59
106.48
114.15
118.76
120.94
121.83
122.75
124.67
127.74
131.29
134.24
135.81
135.77
134.54
132.71
130.54
127.84
124.07
118.71
111.72
103.49
94.66
85.66
76.54
67.03
56.91
46.25
35.53
25.45
16.48
8.62
1.32
-6.39
-15.45
-26.57
-39.79
-54.30
-68.31
-79.41
-85.18
-83.98
-75.59
-61.30
-43.42
-24.52
-6.55
9.39
22.91
33.95
42.51
48.53
52.03
53.20
52.43
50.28
47.50
44.98
43.54
43.57
44.72
46.00
46.15
44.23
40.09
34.41
28.30
22.76
18.25
14.58
11.25
7.70
3.58
-1.19
-6.62
-12.68
-19.27
-26.21
-33.20
-39.90
-46.02
-51.62
-57.11
-63.21
-70.59
-79.28
-88.28
-95.53
-98.50
-95.17
-84.80
-68.43
-48.54
-28.14
-9.72
5.42
17.17
26.24
33.29
38.57
41.92
43.15
42.50
40.83
39.34
39.19
41.02
44.76
49.68
54.77
59.11
62.21
64.11
65.18
65.93
66.77
67.84
69.05
70.16
70.95
71.46
71.98
73.12
75.56
79.73
85.62
92.49
98.95
103.06
102.92
97.05
84.88
67.00
44.88
20.68
-3.19
-24.59
-41.85
-54.05
-61.12
-63.69
-62.76
-59.41
-54.40
-48.26
-41.30
-33.83
-26.31
-19.34
-13.51
-9.11
-6.13
-4.26
-3.09
-2.41
-2.46
-3.84
-7.13
-12.30
-18.47
-24.06
-27.53
-28.15
-26.56
-24.44
-23.71
-25.51
-29.66
-34.94
-39.96
-43.94
-47.21
-50.68
-55.09
-60.42
-65.82
-70.27
-73.32
-75.45
-77.89
-81.83
-87.73
-94.68
-100.81
-103.91
-102.44
-96.30
-86.80
-76.18
-66.62
-59.44
-54.64
-51.11
-47.38
-42.38
-35.97
-28.94
-22.51
-17.72
-15.05
-14.24
-14.67
-15.62
-16.66
-17.72
-18.81
-19.95
-20.98
-21.74
-22.26
-22.78
-23.70
-25.15
-27.01
-28.82
-30.16
-30.99
-31.67
-32.75
-34.59
-37.03
-39.47
-41.40
-42.59
-43.35
-44.17
-45.34
-46.64
-47.38
-46.85
-44.79
-41.49
-37.56
-33.49
-29.45
-25.22
-20.63
-15.87
-11.57
-8.48
-7.00
-6.84
-7.06
-6.51
-4.27
-0.18
5.11
10.53
15.07
18.21
19.93
20.53
20.34
19.59
18.42
17.14
16.24
16.17
17.01
18.28
18.82
17.30
12.73
4.97
-5.16
-16.06
-26.17
-34.50
-40.87
-45.82
-50.21
-54.64
-59.26
-63.75
-67.55
-70.19
-71.39
-70.95
-68.61
-63.95
-56.61
-46.70
-35.10
-23.31
-12.95
-5.32
-0.82
0.98
1.14
0.84
1.05
2.26
4.45
7.24
10.07
12.56
14.54
16.20
17.79
19.30
20.54
21.15
20.96
20.06
18.78
17.30
15.48
13.02
9.73
5.84
1.94
-1.37
-3.92
-6.07
-8.51
-11.91
-16.37
-21.46
-26.51
-30.78
-33.74
-35.03
-34.24
-31.16
-25.70
-18.17
-9.16
0.67
10.62
20.13
28.65
35.64
40.61
43.43
44.39
44.25
43.94
44.17
45.08
46.32
47.32
47.62
47.13
46.03
44.65
43.13
41.50
39.69
37.67
35.48
33.02
30.09
26.50
22.24
17.55
12.86
8.67
5.16
2.22
-0.48
-3.33
-6.49
-9.85
-13.23
-16.41
-19.26
-21.78
-23.81
-25.02
-24.94
-23.17
-19.66
-14.83
-9.59
-5.05
-2.13
-0.99
-1.00
-0.91
0.43
3.45
7.67
11.82
14.53
14.94
12.92
9.05
4.30
-0.35
-4.22
-6.93
-8.41
-8.88
-8.80
-8.79
-9.53
-11.52
-14.93
-19.45
-24.55
-29.54
-33.88
-37.27
-39.63
-41.15
-42.18
-43.14
-44.47
-46.53
-49.55
-53.44
-57.78
-61.96
-65.36
-67.80
-69.59
-71.44
-73.99
-77.20
-80.14
-80.84
-77.08
-67.16
-50.83
-29.58
-6.33
15.53
33.29
45.53
52.31
54.58
53.57
50.16
45.12
39.13
33.10
28.05
24.67
22.97
22.30
21.68
20.40
18.44
16.32
14.63
13.64
12.94
11.68
9.10
4.93
-0.35
-5.88
-10.96
-15.48
-19.85
-24.70
-30.37
-36.55
-42.50
-47.49
-51.33
-54.44
-57.60
-61.26
-65.24
-68.63
-70.15
-68.68
-63.74
-55.49
-44.79
-32.89
-21.14
-10.55
-1.31
7.54
17.76
30.97
47.45
65.17
80.09
87.62
84.47
70.22
47.41
20.27
-7.11
-32.28
-54.86
-75.91
-97.02
-119.56
-144.45
-172.14
-202.47
-234.43
-265.86
-293.79
-315.16
-327.83
-331.28
-326.61
-315.90
-301.43
-284.91
-267.33
-249.30
-231.39
-214.41
-199.25
-186.35
-175.35
-165.07
-153.87
-140.46
-124.40
-106.33
-87.48
-69.03
-51.46
-34.44
-17.21
0.88
19.81
38.98
57.47
74.67
90.54
105.81
121.60
139.06
158.74
180.14
201.68
221.10
236.10
245.02
247.44
244.09
236.45
226.22
214.76
202.95
191.15
179.32
167.18
154.27
140.07
124.24
106.91
88.71
70.76
54.24
40.01
28.23
18.29
8.90
-1.37
-13.63
-28.20
-44.22
-59.73
-72.01
-78.37
-76.84
-66.90
-49.49
-26.80
-1.57
23.69
47.24
68.25
86.58
102.46
116.09
127.55
136.80
143.80
148.66
151.61
152.96
153.12
152.50
151.49
150.56
150.06
150.14
150.54
150.56
149.28
146.01
140.60
133.57
125.87
118.35
111.43
104.98
98.47
91.39
83.49
74.83
65.67
56.32
47.03
37.99
29.33
21.13
13.26
5.32
-3.39
-13.54
-25.35
-38.19
-50.36
-59.42
-62.88
-59.13
-48.05
-31.05
-10.51
11.15
32.15
51.56
69.03
84.28
96.77
105.91
111.44
113.67
113.51
112.04
110.06
107.86
105.26
101.99
97.90
93.17
88.19
83.43
79.17
75.31
71.44
66.90
61.20
54.21
46.35
38.26
30.56
23.37
16.35
8.82
0.24
-9.28
-19.08
-28.23
-36.03
-42.50
-48.36
-54.67
-62.27
-71.44
-81.74
-92.19
-101.57
-108.62
-112.16
-111.26
-105.24
-93.93
-77.90
-58.47
-37.63
-17.54
0.06
14.37
25.63
34.71
42.52
49.33
54.70
57.80
58.18
56.17
52.98
50.19
48.88
49.24
50.53
51.69
51.91
51.08
49.62
48.14
47.01
46.15
45.21
43.81
41.82
39.41
36.89
34.64
32.83
31.41
30.16
28.84
27.24
25.28
22.89
19.85
15.76
10.05
2.36
-7.08
-17.19
-26.18
-31.97
-32.91
-28.38
-18.88
-5.87
8.88
23.78
37.78
50.26
60.91
69.54
76.14
80.90
84.34
87.19
90.05
93.20
96.69
100.47
104.67
109.72
116.19
124.47
134.54
145.88
157.76
169.45
180.50
190.74
200.32
209.51
218.55
227.22
234.59
238.85
237.55
228.36
209.90
182.47
148.27
110.86
74.18
41.41
14.29
-7.07
-23.68
-36.93
-47.87
-56.91
-63.83
-68.19
-69.57
-67.83
-63.00
-55.18
-44.53
-31.32
-16.12
0.14
16.30
31.32
44.48
55.64
65.17
73.65
81.64
89.33
96.38
102.01
105.24
105.25
101.76
95.11
86.20
76.08
65.66
55.47
45.67
36.10
26.57
16.82
6.56
-4.55
-16.91
-31.05
-47.56
-66.76
-88.49
-111.66
-134.39
-154.26
-169.09
-177.56
-179.47
-175.61
-167.22
-155.58
-141.89
-127.37
-113.38
-101.40
-92.59
-87.50
-86.01
-87.63
-91.82
-98.13
-106.01
-114.53
-122.44
-128.60
-132.53
-134.67
-136.00
-137.35
-138.66
-139.00
-137.23
-132.93
-126.70
-120.08
-114.60
-111.00
-108.85
-106.92
-103.99
-99.53
-93.85
-87.84
-82.37
-77.73
-73.57
-69.15
-63.88
-57.76
-51.31
-45.44
-40.80
-37.53
-35.25
-33.53
-32.42
-32.55
-34.90
-40.07
-47.67
-56.47
-64.91
-71.96
-77.63
-82.82
-88.41
-94.56
-100.47
-104.99
-107.52
-108.70
-110.17
-113.77
-120.35
-129.31
-138.80
-146.58
-150.98
-151.35
-147.96
-141.61
-133.17
-123.46
-113.23
-103.22
-93.95
-85.48
-77.32
-68.54
-58.30
-46.26
-33.06
-20.03
-8.73
-0.33
4.72
6.69
6.12
3.41
-1.28
-7.85
-15.80
-23.94
-30.55
-33.93
-33.12
-28.32
-20.84
-12.51
-4.95
0.87
4.95
7.86
10.27
12.59
14.75
16.33
16.98
16.51
15.06
12.98
10.52
7.99
5.58
3.58
2.19
1.52
1.47
1.78
2.16
2.42
2.62
2.92
3.52
4.42
5.55
6.88
8.45
10.40
12.86
15.79
19.12
22.66
26.21
29.55
32.42
34.59
35.98
36.71
37.12
37.63
38.50
39.76
41.34
43.13
45.08
47.24
49.52
51.49
52.46
51.65
48.58
43.29
36.44
29.18
22.64
17.70
14.60
13.00
12.11
11.11
9.47
7.03
4.03
0.74
-2.65
-6.21
-10.13
-14.41
-18.89
-23.02
-26.31
-28.42
-29.37
-29.59
-29.64
-30.21
-32.01
-35.79
-42.06
-50.79
-60.99
-70.75
-77.74
-80.00
-76.78
-68.69
-57.49
-45.15
-33.29
-22.78
-13.84
-6.35
-0.20
4.78
8.79
12.03
14.69
16.79
18.27
19.11
19.34
19.12
18.45
17.23
15.31
12.79
10.11
7.87
6.54
5.90
5.20
3.37
-0.24
-5.57
-11.71
-17.36
-21.58
-24.23
-25.92
-27.66
-30.14
-33.44
-37.06
-40.42
-43.30
-45.87
-48.50
-51.13
-52.92
-52.44
-48.30
-39.91
-28.11
-14.84
-2.33
7.66
14.52
18.63
20.86
21.99
22.42
22.12
20.82
18.43
15.13
11.52
8.43
6.72
6.71
8.11
9.97
10.88
9.81
6.39
1.25
-4.29
-8.97
-11.99
-13.50
-14.37
-15.73
-18.31
-22.22
-26.85
-31.31
-34.99
-37.74
-39.96
-42.07
-44.37
-46.78
-49.21
-51.76
-54.69
-58.18
-61.72
-64.07
-63.32
-57.83
-46.84
-30.94
-11.84
8.43
27.96
45.41
59.77
70.21
76.21
77.54
74.80
69.28
62.67
56.54
52.01
49.45
48.57
48.65
48.91
48.64
47.42
45.21
42.14
38.62
34.94
31.26
27.49
23.37
18.71
13.54
8.21
3.15
-1.33
-5.22
-8.94
-13.06
-18.23
-24.83
-32.85
-41.85
-51.08
-59.53
-65.98
-68.96
-67.01
-59.08
-45.10
-26.46
-5.60
14.47
31.35
43.89
52.31
57.71
61.29
63.66
64.80
64.46
62.63
59.80
56.81
54.45
53.02
52.39
52.11
51.66
50.76
49.34
47.50
45.43
43.25
40.92
38.30
35.06
30.81
25.30
18.53
10.92
3.25
-3.63
-9.15
-13.26
-16.50
-19.75
-23.78
-29.12
-35.84
-43.73
-52.41
-61.17
-68.88
-73.92
-74.53
-69.42
-58.42
-42.80
-24.83
-7.06
8.65
21.66
32.49
42.11
51.19
59.58
66.35
70.39
71.04
68.58
64.15
59.37
55.60
53.55
53.07
53.57
54.26
54.52
53.89
52.04
48.79
44.13
38.39
32.13
25.97
20.27
15.13
10.25
5.23
-0.22
-6.16
-12.37
-18.45
-23.90
-28.21
-31.05
-32.47
-33.00
-33.68
-35.80
-40.43
-48.02
-57.89
-68.28
-76.56
-80.12
-77.11
-67.14
-51.52
-32.79
-13.96
2.56
15.66
25.56
33.41
40.35
46.93
52.71
56.74
58.08
56.42
52.28
46.79
41.17
36.34
32.64
30.03
28.35
27.50
27.42
27.88
28.22
27.49
24.73
19.51
12.19
3.94
-3.76
-9.76
-13.60
-15.76
-17.34
-19.52
-23.08
-28.12
-34.15
-40.50
-46.61
-52.14
-57.04
-61.37
-65.42
-69.60
-74.58
-80.93
-88.79
-97.22
-104.23
-107.10
-103.43
-92.22
-74.31
-52.04
-28.30
-5.44
15.35
33.87
50.28
64.57
76.29
84.76
89.56
90.90
89.71
87.34
85.17
84.17
84.60
85.88
86.88
86.53
84.37
80.76
76.70
73.31
71.15
70.00
69.11
67.78
65.80
63.56
61.65
60.47
60.01
60.01
60.34
61.28
63.17
65.99
68.82
70.00
67.72
60.90
49.80
35.83
21.03
7.31
-3.98
-12.14
-16.86
-18.14
-16.21
-11.71
-5.68
0.56
5.73
8.99
10.02
9.00
6.47
3.16
-0.15
-2.82
-4.48
-5.18
-5.45
-6.00
-7.42
-9.76
-12.63
-15.43
-17.68
-19.42
-21.02
-23.08
-25.79
-28.89
-31.71
-33.56
-34.13
-33.68
-32.94
-32.88
-34.19
-37.08
-41.10
-45.43
-49.37
-52.59
-55.27
-58.07
-61.51
-65.65
-69.90
-73.34
-75.25
-75.52
-74.55
-72.89
-70.79
-68.00
-63.92
-58.14
-50.67
-41.98
-32.72
-23.43
-14.45
-5.97
1.72
8.28
13.31
16.74
19.00
20.80
22.89
25.59
28.61
31.21
32.66
32.63
31.56
30.52
30.73
33.08
37.62
43.51
49.21
52.93
53.42
50.34
44.65
38.27
33.63
32.53
35.49
41.47
48.29
53.45
55.10
52.48
45.81
35.82
23.26
8.73
-7.20
-23.70
-39.61
-53.44
-63.84
-69.97
-71.69
-69.65
-64.92
-58.65
-51.73
-44.60
-37.41
-30.11
-22.85
-15.94
-9.86
-5.09
-2.00
-0.69
-0.91
-2.18
-3.96
-5.81
-7.50
-9.04
-10.53
-11.96
-13.10
-13.65
-13.25
-11.73
-9.30
-6.47
-3.96
-2.42
-2.19
-3.27
-5.27
-7.60
-9.60
-10.66
-10.43
-8.90
-6.44
-3.57
-1.03
0.55
0.67
-0.87
-3.96
-8.17
-12.98
-17.91
-22.52
-26.47
-29.32
-30.72
-30.43
-28.42
-24.81
-19.90
-14.13
-7.95
-2.02
3.00
6.44
7.96
7.74
6.42
4.90
3.72
2.90
1.96
0.35
-2.00
-4.68
-7.03
-8.74
-10.05
-11.51
-13.51
-15.85
-17.84
-18.68
-18.08
-16.56
-15.16
-14.80
-15.95
-18.40
-21.79
-25.90
-30.78
-36.45
-42.62
-48.67
-53.83
-57.79
-60.72
-63.27
-66.07
-69.29
-72.64
-75.34
-76.58
-75.74
-72.60
-67.19
-59.73
-50.59
-40.31
-29.69
-19.86
-12.06
-7.36
-6.27
-8.42
-12.76
-17.75
-21.98
-24.60
-25.39
-24.63
-22.80
-20.23
-17.07
-13.48
-9.59
-5.60
-1.65
2.08
5.46
8.21
9.95
10.33
9.25
7.11
4.47
1.77
-0.89
-3.78
-7.39
-11.92
-17.13
-22.41
-26.80
-29.28
-28.84
-24.58
-15.82
-2.36
15.30
35.95
57.97
79.78
100.22
118.62
134.82
148.64
159.86
168.32
174.06
177.48
179.26
180.20
180.87
181.62
182.57
183.89
185.53
187.09
187.58
185.57
179.55
168.64
153.03
133.91
113.09
92.29
72.73
54.78
38.17
22.28
6.42
-9.85
-26.53
-43.15
-58.76
-72.27
-82.76
-89.79
-93.56
-94.69
-93.96
-92.09
-89.59
-86.69
-83.45
-79.77
-75.62
-70.89
-65.62
-59.92
-53.94
-47.84
-41.78
-36.10
-31.32
-28.09
-26.91
-27.79
-30.14
-32.97
-35.17
-35.96
-35.24
-33.43
-31.12
-28.90
-26.98
-25.41
-24.24
-23.70
-24.22
-26.14
-29.40
-33.45
-37.37
-40.17
-41.32
-40.98
-40.09
-39.90
-41.46
-45.05
-50.02
-54.93
-58.08
-58.04
-54.21
-46.89
-37.14
-26.22
-15.24
-4.86
4.56
12.86
19.79
25.13
28.89
31.27
32.84
34.23
35.91
37.93
39.94
41.33
41.43
39.81
36.46
31.92
27.07
22.91
20.13
18.67
18.01
17.38
16.25
14.57
12.50
10.23
7.73
4.79
1.28
-2.58
-6.33
-9.49
-11.98
-14.20
-16.79
-20.29
-24.65
-29.36
-33.66
-36.98
-39.04
-39.80
-39.14
-36.79
-32.32
-25.46
-16.48
-6.15
4.16
13.06
19.63
23.60
25.54
26.37
26.98
27.92
29.23
30.57
31.59
32.07
32.06
31.77
31.37
30.91
30.20
29.03
27.37
25.35
23.28
21.25
19.00
16.01
11.94
6.92
1.69
-2.83
-6.16
-8.62
-11.19
-14.93
-20.32
-27.03
-34.18
-40.90
-46.77
-51.73
-55.58
-57.69
-57.08
-53.05
-45.81
-36.45
-26.60
-17.47
-9.41
-1.92
5.69
13.57
21.18
27.43
31.48
33.12
32.82
31.51
30.09
29.20
29.03
29.54
30.50
31.61
32.57
33.08
33.08
32.73
32.24
31.65
30.60
28.37
24.28
18.12
10.50
2.70
-3.82
-8.08
-10.10
-10.83
-11.76
-14.23
-18.86
-25.42
-32.91
-40.10
-45.79
-49.01
-49.14
-45.83
-39.12
-29.44
-17.66
-4.88
7.67
18.90
28.01
34.55
38.37
39.67
38.97
37.06
34.90
33.27
32.63
32.86
33.50
33.88
33.51
32.32
30.60
28.81
27.36
26.49
26.06
25.72
24.90
23.03
19.72
14.85
8.79
2.24
-3.83
-8.64
-11.83
-13.65
-14.98
-16.90
-20.29
-25.36
-31.60
-37.86
-42.81
-45.29
-44.63
-40.71
-33.88
-25.01
-15.34
-6.32
0.75
5.21
7.36
8.35
9.56
11.96
15.62
19.68
22.95
24.55
24.33
22.80
20.84
19.11
17.95
17.51
17.82
19.03
21.18
24.03
26.99
29.23
30.03
29.00
26.37
22.76
18.92
15.41
12.38
9.50
6.29
2.40
-2.25
-7.37
-12.59
-17.64
-22.56
-27.72
-33.64
-40.62
-48.39
-56.05
-62.04
-64.66
-62.63
-55.64
-44.55
-31.09
-17.44
-5.43
3.96
10.80
15.93
20.30
24.56
28.64
31.96
33.71
33.43
31.15
27.55
23.73
20.63
18.86
18.40
18.78
19.49
20.03
20.09
19.41
17.63
14.50
10.05
4.63
-1.08
-6.46
-11.07
-14.98
-18.39
-21.49
-24.19
-26.18
-27.22
-27.48
-27.57
-28.43
-30.88
-35.28
-41.26
-47.90
-53.84
-57.71
-58.44
-55.48
-48.90
-39.30
-27.63
-14.99
-2.42
8.94
18.13
24.41
27.65
28.38
27.77
27.08
27.35
28.93
31.58
34.60
37.28
39.13
39.88
39.48
37.95
35.42
32.15
28.61
25.37
22.90
21.49
20.92
20.73
20.21
18.71
15.90
11.84
7.05
2.20
-2.14
-5.78
-8.98
-12.36
-16.62
-22.13
-28.65
-35.22
-40.40
-42.60
-40.77
-34.71
-25.25
-13.86
-2.08
8.93
18.63
26.80
33.28
37.83
40.16
40.35
39.00
37.23
36.16
36.73
39.40
44.10
50.51
57.96
65.57
72.28
77.26
80.24
81.80
82.93
84.51
86.49
87.80
86.81
82.22
73.98
63.25
51.81
41.09
31.38
22.08
12.18
1.19
-10.68
-22.65
-34.13
-45.20
-56.51
-68.80
-82.23
-96.19
-109.42
-120.59
-128.92
-134.33
-137.22
-138.09
-137.29
-135.27
-132.78
-130.86
-130.67
-132.84
-137.10
-142.17
-146.55
-149.22
-150.22
-150.81
-153.04
-159.24
-171.51
-191.09
-217.99
-250.50
-285.24
-317.69
-343.43
-359.61
-365.72
-363.69
-356.68
-347.80
-338.97
-330.68
-322.55
-314.09
-305.10
-295.73
-285.99
-275.56
-263.81
-250.09
-234.09
-216.10
-196.97
-177.71
-159.16
-141.66
-125.02
-108.66
-92.00
-74.70
-56.90
-39.15
-22.25
-6.94
6.38
17.75
27.57
36.52
45.17
53.89
62.63
71.03
78.56
84.74
89.43
92.88
95.73
98.78
102.74
107.93
114.23
121.13
127.89
133.99
139.16
143.74
148.55
154.76
163.53
175.43
189.93
205.08
217.77
224.39
222.02
209.44
187.71
160.07
131.20
105.95
88.26
80.22
81.78
91.02
104.94
120.38
134.96
147.48
157.84
166.51
173.81
179.63
183.48
184.99
184.10
181.40
177.64
173.48
169.15
164.52
159.42
153.96
148.59
143.90
140.45
138.39
137.46
137.21
137.14
136.94
136.51
135.83
134.98
134.11
133.41
133.24
134.02
136.10
139.55
144.14
149.42
154.79
159.87
164.62
169.56
175.75
184.73
198.08
216.97
241.31
269.44
298.15
323.37
341.33
349.68
348.03
337.85
321.74
302.63
283.19
265.62
251.66
242.47
238.35
238.44
240.70
242.32
240.60
233.96
222.55
207.98
192.65
178.54
166.44
155.84
145.35
133.58
119.86
104.38
87.89
71.28
55.00
39.09
23.34
7.53
-8.39
-24.53
-40.98
-57.97
-75.64
-93.88
-112.13
-129.49
-144.88
-157.26
-165.99
-170.92
-172.37
-171.08
-168.02
-164.31
-161.05
-159.12
-158.95
-160.39
-162.82
-165.52
-168.17
-171.20
-175.56
-182.15
-191.28
-202.33
-214.06
-225.17
-235.01
-243.72
-252.19
-261.87
-274.42
-291.61
-314.76
-344.15
-378.23
-413.44
-444.82
-467.47
-478.18
-476.50
-464.65
-446.41
-425.68
-405.29
-386.68
-370.18
-355.50
-342.24
-329.97
-318.15
-306.01
-292.67
-277.35
-259.68
-239.83
-218.48
-196.49
-174.61
-153.27
-132.49
-112.13
-92.02
-72.21
-52.96
-34.67
-17.66
-2.07
12.19
25.39
37.85
49.84
61.49
72.83
83.84
94.56
105.23
116.45
129.15
144.20
161.96
181.59
200.91
216.82
226.30
227.52
220.60
207.51
191.20
174.43
158.93
145.15
132.59
120.50
108.27
95.61
82.37
68.58
54.55
41.16
29.94
22.78
21.22
25.79
35.64
48.71
62.49
74.82
84.44
91.19
95.61
98.44
100.12
100.70
99.89
97.55
93.93
89.67
85.70
82.81
81.25
80.59
79.92
78.42
75.66
71.98
68.09
64.63
61.75
58.92
55.33
50.36
43.93
36.63
29.32
22.65
16.80
11.40
5.80
-0.54
-7.78
-15.75
-24.10
-32.37
-40.05
-46.38
-50.38
-51.00
-47.52
-39.97
-29.12
-16.37
-3.22
9.19
20.13
29.32
36.57
41.73
44.61
45.32
44.27
42.27
40.24
38.98
38.93
40.04
41.86
43.73
45.08
45.75
45.96
46.32
47.45
49.66
52.73
55.93
58.34
59.21
58.21
55.44
51.39
46.50
41.17
35.48
29.29
22.24
13.99
4.43
-6.00
-16.16
-24.36
-28.88
-28.55
-23.32
-14.33
-3.53
7.07
16.12
23.26
28.80
33.27
36.89
39.47
40.69
40.40
38.94
36.95
35.10
33.70
32.65
31.58
30.09
28.13
25.91
23.85
22.37
21.64
21.51
21.60
21.34
20.19
17.70
13.78
8.73
3.20
-2.02
-6.28
-9.33
-11.43
-13.33
-15.95
-20.08
-26.03
-33.41
-41.14
-47.62
-51.12
-50.32
-44.73
-34.91
-21.85
-7.15
7.50
20.79
32.06
41.37
48.97
55.15
59.78
62.84
64.24
64.04
62.57
60.50
58.59
57.27
56.61
56.28
56.72
58.33
61.22
65.04
69.31
73.57
77.22
79.86
80.96
82.52
85.82
90.57
94.90
96.90
95.94
92.07
86.82
81.45
81.72
91.07
108.70
129.88
149.40
164.64
174.86
182.99
191.83
211.06
246.31
295.91
351.60
404.17
448.40
481.99
508.49
531.49
563.84
613.45
678.77
749.31
812.57
860.67
889.38
902.71
839.01
670.07
414.81
132.55
-118.27
-309.10
-425.11
-492.97
-531.79
-553.36
-554.64
-533.89
-495.61
-450.19
-408.54
-376.69
-357.67
-347.60
-342.96
-333.58
-313.12
-282.05
-247.13
-216.29
-193.99
-182.47
-178.68
-179.75
-178.78
-171.37
-157.45
-140.97
-126.67
-117.15
-113.66
-114.14
-116.70
-117.67
-114.78
-107.97
-99.18
-90.79
-84.16
-80.03
-77.59
-76.12
-74.42
-71.78
-68.26
-64.55
-61.40
-59.10
-57.78
-57.11
-56.92
-57.34
-58.53
-60.61
-63.47
-66.82
-70.27
-73.55
-76.66
-79.90
-83.84
-89.06
-95.89
-104.34
-114.01
-124.32
-134.79
-145.13
-155.41
-165.97
-177.33
-190.12
-205.02
-222.34
-241.66
-261.35
-278.69
-290.44
-293.97
-288.30
-274.59
-255.67
-234.82
-214.62
-196.21
-179.61
-164.31
-150.03
-136.96
-125.43
-115.45
-106.52
-98.00
-89.45
-81.07
-73.50
-67.35
-62.77
-59.37
-56.41
-53.24
-49.73
-46.13
-42.82
-39.94
-37.37
-34.90
-32.45
-30.25
-28.68
-27.83
-27.34
-26.37
-24.06
-19.91
-14.11
-7.35
-0.55
5.66
11.20
16.30
21.23
25.96
30.13
33.25
35.10
35.89
36.06
36.04
35.91
35.35
33.88
31.34
28.04
24.64
21.74
19.63
18.14
16.82
15.28
13.37
11.17
8.89
6.61
4.36
2.01
-0.60
-3.66
-7.40
-11.90
-16.95
-22.03
-26.46
-29.62
-31.13
-30.97
-29.17
-25.85
-21.06
-14.95
-7.96
-0.82
5.68
10.94
14.92
18.07
20.95
23.89
26.63
28.58
29.20
28.46
26.85
25.17
23.84
22.59
20.71
17.45
12.78
7.67
3.63
1.91
2.71
4.71
5.64
3.37
-3.06
-13.02
-24.57
-35.51
-44.26
-50.50
-55.22
-60.14
-66.88
-76.28
-88.09
-100.77
-112.08
-119.36
-120.14
-112.63
-96.29
-72.32
-43.68
-14.63
10.27
27.35
34.98
34.12
27.94
20.62
15.72
14.92
17.82
22.74
27.98
32.77
37.36
42.35
48.08
54.17
60.08
65.67
71.60
79.05
88.91
100.96
113.58
124.39
131.21
133.12
130.84
126.69
123.84
125.27
132.79
146.32
163.78
181.75
196.62
205.78
208.26
204.55
195.83
183.37
167.97
150.32
131.14
111.36
91.73
72.36
52.56
31.30
8.05
-16.46
-40.36
-61.23
-77.29
-88.20
-95.01
-99.32
-102.31
-104.27
-105.08
-104.81
-104.18
-104.35
-106.32
-110.00
-114.38
-117.92
-119.52
-119.15
-117.84
-117.19
-118.67
-123.26
-131.28
-142.62
-156.54
-171.58
-185.77
-196.97
-203.57
-204.98
-201.90
-195.98
-189.29
-183.32
-178.42
-173.80
-168.01
-159.68
-148.01
-133.15
-116.18
-99.19
-84.29
-73.26
-67.11
-65.98
-69.18
-75.25
-82.43
-89.22
-95.68
-102.21
-108.85
-114.83
-118.81
-119.52
-116.04
-108.33
-97.26
-85.92
-76.54
-69.68
-64.44
-59.86
-55.46
-51.10
-46.65
-42.11
-40.08
-41.99
-47.03
-52.54
-55.89
-55.45
-50.72
-42.36
-32.09
-24.89
-23.03
-24.75
-25.60
-22.17
-13.84
-2.19
10.48
42.87
100.52
173.59
243.35
296.19
327.76
339.50
335.40
320.30
296.65
263.27
221.25
174.71
129.38
90.33
60.13
39.10
29.15
29.19
32.91
34.04
28.56
19.88
12.47
10.01
14.31
25.77
42.71
60.63
75.45
84.60
87.70
85.15
78.07
68.14
57.12
45.53
32.49
17.18
-0.32
-18.72
-36.75
-53.33
-67.80
-79.92
-90.10
-99.13
-107.54
-115.67
-123.57
-131.53
-139.61
-147.13
-152.77
-155.07
-153.00
-146.42
-136.18
-123.65
-110.35
-97.23
-84.51
-71.95
-59.25
-46.25
-32.97
-19.47
-5.58
8.90
24.24
40.58
57.79
75.52
93.43
111.40
129.68
148.67
168.41
188.41
207.46
224.17
237.63
247.85
255.81
262.96
270.58
279.06
287.96
296.23
302.78
306.96
308.62
308.04
305.76
302.54
299.21
296.74
295.87
296.82
299.12
301.49
301.94
298.37
289.09
273.38
251.83
226.20
199.02
172.85
149.73
130.91
116.81
107.24
101.44
98.40
96.51
93.73
88.01
77.75
62.55
43.41
22.33
1.51
-17.22
-32.99
-45.53
-54.89
-61.15
-64.53
-65.68
-66.06
-67.55
-71.82
-79.65
-90.65
-103.51
-116.74
-129.41
-141.28
-152.45
-163.00
-172.67
-180.98
-187.61
-192.76
-197.12
-201.58
-206.66
-212.43
-218.51
-224.47
-230.13
-235.55
-240.85
-246.03
-250.76
-254.61
-257.33
-258.91
-259.64
-260.03
-260.53
-261.51
-262.91
-264.15
-264.00
-260.78
-252.79
-238.87
-218.70
-193.05
-163.46
-131.99
-100.85
-72.00
-46.91
-26.33
-10.10
2.52
12.59
20.90
27.52
31.87
33.12
30.86
25.57
18.54
11.32
5.08
0.06
-4.49
-9.89
-17.38
-27.63
-40.14
-53.67
-66.84
-78.43
-87.47
-92.97
-94.08
-90.07
-80.74
-66.24
-47.42
-25.92
-3.74
17.09
34.97
48.89
58.40
63.61
66.06
67.44
69.09
71.47
74.53
78.00
81.54
84.79
87.30
90.99
97.43
106.79
117.57
127.68
135.61
140.56
142.21
140.60
140.77
147.06
160.26
177.07
192.65
203.35
207.77
206.12
199.39
196.28
203.70
222.89
249.11
276.12
300.37
321.41
340.11
357.24
383.33
426.75
489.09
564.34
643.55
719.43
786.86
841.48
824.34
702.92
488.85
235.95
2.01
-181.48
-310.37
-395.20
-447.95
-487.14
-514.46
-528.49
-531.21
-529.58
-530.59
-536.72
-541.75
-538.46
-522.39
-485.44
-425.77
-349.40
-268.09
-193.11
-130.53
-81.24
-44.18
-18.12
3.17
24.61
47.83
70.99
91.22
106.88
117.91
124.35
125.90
125.00
123.59
122.40
120.84
118.12
114.00
108.73
101.99
92.89
81.32
67.18
50.61
32.07
12.72
-5.71
-21.27
-32.62
-39.14
-40.75
-37.84
-31.06
-21.35
-10.02
1.20
10.50
16.26
17.61
14.50
7.53
-2.41
-14.50
-28.14
-42.88
-58.37
-74.19
-89.91
-105.04
-119.02
-130.98
-139.78
-144.24
-143.45
-137.45
-127.35
-115.27
-103.62
-94.44
-88.69
-86.12
-85.69
-86.06
-86.10
-85.17
-82.94
-79.20
-73.79
-66.78
-58.73
-50.85
-44.57
-40.95
-40.21
-41.65
-44.06
-46.55
-49.13
-52.48
-57.41
-64.00
-71.28
-77.59
-81.33
-81.79
-79.43
-75.51
-71.40
-67.91
-65.09
-62.49
-59.52
-55.79
-51.13
-45.62
-39.36
-32.43
-24.86
-16.75
-8.22
0.43
8.77
16.17
22.01
25.99
28.19
29.15
29.55
29.95
30.53
31.14
31.57
31.72
31.77
31.92
32.23
32.54
32.56
32.19
31.59
31.05
30.65
30.03
28.59
25.93
22.35
18.87
16.71
16.63
18.42
20.86
22.25
21.24
17.46
11.68
5.45
0.46
-2.18
-2.06
0.43
4.60
9.79
15.66
22.32
30.04
39.13
49.52
60.77
72.12
82.67
91.61
98.25
102.14
102.96
100.69
95.55
88.23
79.89
72.03
66.15
63.13
62.86
64.24
65.59
65.41
63.03
58.78
53.63
48.65
44.40
40.89
37.68
34.31
30.46
26.19
21.78
17.74
14.72
13.38
14.20
17.27
22.15
28.01
33.80
38.76
42.60
45.54
48.06
50.57
53.31
56.42
59.99
64.09
68.62
73.19
77.07
79.47
79.89
78.49
76.05
73.73
72.54
72.97
74.55
76.19
76.57
74.77
70.62
64.78
58.33
52.33
47.36
43.50
40.59
38.50
37.23
36.85
37.06
37.02
35.61
31.89
25.66
17.73
9.73
3.56
0.80
2.09
6.94
14.02
21.51
27.70
31.68
33.38
33.45
32.67
31.25
28.71
24.05
16.25
4.82
-10.04
-27.56
-46.78
-66.62
-85.85
-102.95
-116.18
-124.25
-127.03
-126.13
-124.79
-126.42
-132.98
-143.65
-154.83
-161.69
-160.40
-149.80
-131.76
-110.04
-88.29
-68.77
-52.10
-38.06
-26.66
-18.46
-14.10
-13.49
-15.35
-17.66
-18.64
-17.66
-15.48
-13.73
-14.07
-17.30
-23.12
-30.38
-37.63
-43.76
-48.25
-51.29
-53.54
-55.82
-58.72
-62.45
-66.76
-71.05
-74.60
-76.79
-77.35
-76.53
-75.09
-74.03
-74.35
-76.56
-80.33
-84.56
-87.84
-88.97
-87.51
-83.84
-78.99
-74.12
-70.15
-67.40
-65.82
-65.09
-64.88
-64.79
-64.27
-62.48
-58.30
-50.81
-39.65
-25.51
-10.03
4.64
16.66
24.98
29.56
31.08
30.56
28.87
26.57
24.09
21.72
19.73
18.27
17.23
16.35
15.34
14.07
12.65
11.23
9.90
8.41
6.24
2.91
-1.80
-7.56
-13.56
-18.78
-22.36
-23.92
-23.73
-22.41
-20.67
-18.95
-17.48
-16.44
-16.11
-16.85
-18.77
-21.36
-23.35
-23.25
-20.06
-14.11
-7.07
-1.23
1.57
0.81
-2.57
-7.01
-11.27
-14.98
-18.42
-21.93
-25.34
-28.06
-29.54
-29.90
-29.89
-30.63
-32.99
-37.15
-42.66
-48.50
-53.69
-57.43
-59.31
-59.33
-57.89
-55.79
-53.85
-52.59
-51.82
-50.56
-47.40
-41.23
-31.73
-19.65
-6.42
6.31
17.42
26.36
33.47
39.61
45.92
53.48
62.89
73.97
85.62
95.79
102.20
103.04
97.74
87.22
73.52
58.98
45.51
34.23
25.56
19.51
15.87
14.32
14.22
14.78
15.11
14.60
13.08
10.79
8.16
5.61
3.32
1.21
-0.91
-3.37
-6.37
-9.97
-13.98
-17.87
-21.09
-23.21
-24.20
-24.52
-24.94
-26.18
-28.74
-32.84
-38.33
-44.78
-51.53
-57.51
-61.45
-62.19
-59.07
-52.31
-43.14
-33.27
-24.53
-18.07
-14.08
-11.61
-9.07
-4.64
2.84
13.39
25.93
38.56
49.29
56.49
59.03
56.33
48.33
35.74
20.40
5.26
-6.34
-11.64
-9.90
-2.68
6.77
14.95
19.45
19.83
17.19
13.26
9.59
6.87
5.04
3.60
2.04
0.07
-2.16
-4.19
-5.51
-5.65
-4.51
-2.23
1.04
5.41
11.25
18.99
28.60
39.23
49.41
57.40
61.87
62.31
59.00
52.82
44.85
36.09
27.41
19.48
12.70
7.14
2.69
-1.04
-4.34
-7.41
-10.26
-12.90
-15.31
-17.61
-19.92
-22.37
-24.96
-27.63
-30.27
-32.81
-35.10
-37.01
-38.48
-39.63
-40.77
-42.45
-45.16
-49.12
-53.91
-58.55
-61.72
-62.09
-58.81
-51.78
-41.89
-30.73
-20.23
-11.98
-6.79
-4.52
-4.21
-4.68
-5.01
-4.73
-3.91
-2.67
-0.86
1.98
6.41
12.57
19.76
26.60
31.56
33.68
33.28
31.66
30.57
31.17
33.52
36.50
38.64
38.87
37.04
33.74
29.76
25.58
21.22
16.61
11.84
7.27
3.31
0.02
-2.80
-5.50
-8.06
-9.83
-9.82
-7.31
-2.33
4.21
11.03
17.16
22.28
26.68
30.74
34.35
36.81
37.09
34.67
29.91
24.27
19.54
17.04
17.11
18.91
21.06
22.33
22.15
20.45
17.55
13.79
9.46
4.97
0.80
-2.46
-4.48
-5.40
-5.84
-6.58
-8.09
-10.36
-12.82
-14.96
-16.54
-17.90
-19.66
-22.32
-26.06
-30.48
-34.77
-37.92
-39.13
-37.91
-34.21
-28.35
-20.83
-12.25
-3.33
5.06
12.06
17.01
19.75
20.64
20.54
20.36
20.69
21.57
22.64
23.44
23.68
23.30
22.49
21.46
20.38
19.34
18.37
17.44
16.44
15.15
13.35
10.88
7.84
4.57
1.48
-1.13
-3.19
-4.96
-6.92
-9.47
-12.88
-17.22
-22.39
-28.02
-33.47
-37.80
-39.91
-38.89
-34.26
-26.26
-15.87
-4.36
7.21
18.14
28.14
36.87
43.59
47.19
46.61
41.42
32.18
20.35
7.85
-3.52
-12.71
-19.55
-24.62
-28.92
-33.36
-38.47
-44.27
-50.38
-56.21
-61.28
-65.32
-68.25
-70.12
-70.96
-70.67
-69.17
-66.55
-62.96
-58.81
-54.55
-50.60
-47.43
-45.43
-45.03
-46.34
-48.85
-51.03
-50.40
-44.20
-30.51
-9.45
16.64
43.83
68.19
87.27
100.75
109.77
115.73
119.16
119.53
116.05
108.70
98.77
88.53
80.18
74.93
72.56
71.91
71.50
70.36
68.22
65.42
62.57
59.98
57.70
55.22
51.87
47.07
40.70
33.16
25.19
17.58
10.62
4.15
-2.34
-9.32
-17.10
-25.60
-34.51
-43.17
-50.64
-55.85
-57.92
-56.78
-53.28
-48.98
-45.42
-43.16
-41.61
-39.34
-35.06
-28.62
-21.12
-14.40
-9.99
-8.36
-8.77
-9.92
-10.69
-10.49
-9.24
-7.05
-3.86
0.47
6.02
12.51
19.37
25.83
31.19
34.98
36.97
37.10
35.39
32.04
27.35
21.79
15.92
10.21
5.00
0.37
-3.90
-8.24
-13.10
-18.74
-24.99
-31.07
-35.69
-37.32
-34.72
-27.33
-15.70
-1.30
13.88
27.93
39.59
48.28
54.05
57.06
57.43
55.24
50.78
44.82
38.61
33.51
30.54
29.84
30.68
31.83
32.25
31.49
29.75
27.66
25.75
24.21
22.81
21.07
18.59
15.24
11.22
6.99
2.89
-0.99
-4.91
-9.35
-14.69
-20.98
-27.70
-34.05
-39.01
-41.71
-41.61
-38.56
-32.84
-25.10
-16.39
-8.03
-1.30
2.98
4.85
4.99
4.51
4.31
4.72
5.40
5.66
4.84
2.64
-0.91
-5.51
-10.62
-15.67
-19.96
-22.78
-23.75
-22.95
-20.98
-18.88
-17.82
-18.70
-21.94
-27.23
-33.63
-39.85
-44.74
-47.74
-49.29
-50.62
-53.18
-57.80
-64.20
-70.95
-76.19
-78.39
-77.00
-72.38
-65.27
-56.30
-45.68
-33.53
-20.38
-7.43
3.65
11.23
14.45
13.53
9.59
4.27
-0.82
-4.40
-5.64
-4.10
0.23
6.79
14.50
22.10
28.47
33.20
36.50
38.89
40.62
41.27
39.91
35.56
27.97
17.70
6.06
-5.75
-17.05
-28.02
-39.40
-52.03
-66.48
-82.52
-98.95
-113.42
-122.80
-123.94
-114.95
-96.12
-70.17
-41.36
-14.03
8.88
26.47
39.51
49.31
56.82
62.24
65.41
66.35
65.63
64.18
62.94
62.42
62.62
63.20
63.62
63.40
62.27
60.19
57.43
54.53
52.10
50.46
49.39
47.90
44.57
38.13
28.14
15.22
0.89
-13.06
-25.13
-34.83
-42.68
-49.83
-57.50
-66.56
-77.17
-88.86
-100.78
-111.80
-120.56
-125.39
-124.42
-115.92
-99.00
-74.23
-43.69
-10.67
21.40
50.02
74.24
94.59
112.43
128.93
144.66
159.52
173.14
185.32
196.32
206.70
216.96
227.33
237.83
248.19
258.10
267.15
274.84
280.48
283.24
282.31
277.25
268.12
255.68
241.21
226.25
212.30
200.12
189.40
178.31
164.16
144.15
116.79
82.62
44.14
4.86
-32.11
-64.90
-92.78
-115.54
-132.76
-143.73
-148.21
-147.20
-143.26
-139.75
-139.41
-143.12
-149.65
-156.51
-161.23
-162.44
-160.15
-155.12
-148.19
-139.82
-130.20
-119.58
-108.58
-98.10
-88.88
-81.34
-75.23
-69.96
-64.89
-59.60
-54.10
-48.74
-44.01
-40.40
-38.32
-37.85
-38.80
-40.68
-42.87
-44.94
-46.69
-48.09
-49.17
-49.88
-50.16
-50.21
-50.41
-51.30
-53.20
-56.13
-59.62
-62.98
-65.51
-66.65
-65.99
-63.31
-58.51
-51.69
-43.39
-34.36
-25.46
-17.28
-9.94
-3.37
2.48
7.37
10.83
12.63
13.06
12.96
13.40
15.15
18.25
22.06
25.67
28.41
30.19
31.52
33.11
35.35
38.12
40.82
42.75
43.45
42.83
41.07
38.41
34.94
30.80
26.25
21.73
17.74
14.61
12.16
9.81
6.79
2.65
-2.52
-8.05
-13.09
-16.85
-18.78
-18.52
-15.91
-11.04
-4.30
3.44
11.09
17.46
21.72
23.52
22.90
20.11
15.47
9.37
2.30
-4.89
-11.18
-15.64
-17.95
-18.47
-18.22
-18.31
-19.51
-21.94
-25.16
-28.42
-31.27
-33.67
-36.02
-38.78
-42.21
-46.09
-49.79
-52.50
-53.48
-52.37
-49.16
-44.31
-38.50
-32.47
-26.79
-21.67
-16.94
-12.07
-6.37
0.87
9.97
20.70
32.22
43.33
52.84
59.95
64.43
66.64
67.15
66.40
64.66
61.93
58.28
53.89
49.23
44.89
41.29
38.51
36.28
34.09
31.40
28.10
24.46
21.16
18.82
17.71
17.51
17.29
16.03
12.85
7.59
0.84
-6.41
-13.09
-18.42
-22.17
-24.51
-25.95
-27.12
-28.66
-31.09
-34.81
-39.85
-45.74
-51.42
-55.57
-56.93
-54.90
-49.69
-42.14
-33.26
-23.87
-14.48
-5.48
2.77
9.76
14.99
18.15
19.37
19.16
18.21
17.10
16.04
15.05
14.11
13.33
13.03
13.56
15.04
17.29
19.93
22.44
24.50
25.95
26.68
26.53
25.19
22.28
17.72
11.81
5.26
-1.08
-6.64
-11.36
-15.57
-19.93
-24.91
-30.67
-36.84
-42.71
-47.45
-50.44
-51.47
-50.82
-48.92
-46.04
-42.05
-36.61
-29.51
-21.09
-12.30
-4.37
1.69
5.53
7.58
8.67
9.63
10.73
11.73
12.04
11.26
9.48
7.34
5.73
5.36
6.44
8.53
10.78
12.34
12.69
11.81
9.99
7.57
4.55
0.77
-3.95
-9.38
-14.82
-19.39
-22.45
-23.90
-24.29
-24.47
-25.20
-26.85
-29.31
-32.30
-35.65
-39.28
-43.06
-46.55
-48.94
-49.31
-47.04
-42.11
-35.09
-26.77
-17.78
-8.58
0.40
8.56
15.10
19.39
21.26
21.23
20.24
19.31
19.05
19.56
20.56
21.67
22.57
23.09
23.08
22.48
21.41
20.19
19.34
19.36
20.38
22.06
23.77
24.83
24.81
23.57
21.19
17.86
13.74
9.03
4.07
-0.71
-4.90
-8.32
-11.33
-14.61
-18.90
-24.55
-31.15
-37.50
-41.88
-42.80
-39.52
-32.52
-23.14
-13.18
-4.14
3.10
8.38
11.89
13.85
14.53
14.16
13.12
11.93
11.17
11.22
11.97
12.85
13.09
12.13
9.93
7.11
4.58
3.17
3.19
4.31
5.68
6.52
6.39
5.41
4.02
2.64
1.29
-0.29
-2.40
-5.02
-7.77
-10.30
-12.49
-14.72
-17.61
-21.62
-26.56
-31.67
-35.87
-38.23
-38.35
-36.29
-32.45
-27.19
-20.85
-13.63
-5.79
2.25
9.99
16.84
22.21
25.63
26.91
26.24
24.33
22.12
20.47
19.89
20.25
20.97
21.26
20.53
18.58
15.68
12.41
9.40
7.17
5.82
5.18
4.70
3.70
1.58
-1.96
-6.69
-11.94
-16.76
-20.33
-22.26
-22.77
-22.82
-23.74
-26.82
-32.66
-40.82
-49.88
-57.99
-63.35
-64.79
-61.99
-55.25
-45.31
-33.12
-19.75
-6.35
5.98
16.43
24.75
31.21
36.35
40.65
44.29
47.02
48.49
48.56
47.42
45.53
43.40
41.36
39.42
37.50
35.44
33.22
30.93
28.79
26.92
25.36
23.91
22.17
19.63
15.87
10.77
4.63
-1.97
-8.33
-13.95
-18.74
-22.89
-26.69
-30.31
-33.67
-36.60
-39.09
-41.35
-43.87
-46.95
-50.47
-53.70
-55.61
-55.17
-51.87
-45.88
-37.84
-28.53
-18.63
-8.71
0.64
8.65
14.60
18.07
19.40
19.56
19.83
21.14
23.60
26.51
28.89
30.03
29.84
28.78
27.45
26.08
24.45
21.98
18.39
13.87
9.25
5.53
3.32
2.50
2.10
0.81
-2.41
-7.69
-14.31
-21.01
-26.66
-30.89
-34.08
-37.19
-41.02
-45.80
-50.94
-55.31
-57.73
-57.19
-53.28
-46.26
-36.84
-25.95
-14.52
-3.10
8.10
19.10
29.93
40.25
49.27
56.02
59.91
61.00
60.06
58.25
56.54
55.30
54.30
53.07
51.28
49.02
46.60
44.19
41.71
38.79
35.14
30.88
26.47
22.62
19.70
17.49
15.39
12.66
8.93
4.49
0.04
-3.69
-6.34
-8.13
-9.71
-11.75
-14.80
-19.11
-24.69
-31.30
-38.43
-45.17
-50.31
-52.37
-50.18
-43.42
-32.85
-20.15
-7.30
4.08
13.28
20.42
26.15
31.06
35.19
38.23
39.67
39.21
37.03
33.80
30.28
27.22
24.85
23.06
21.45
19.65
17.47
14.94
12.11
9.05
5.74
2.10
-1.88
-6.06
-10.30
-14.27
-17.66
-20.18
-21.75
-22.40
-22.48
-22.53
-23.18
-24.87
-27.75
-31.60
-36.09
-40.83
-45.60
-50.19
-54.22
-57.01
-57.74
-55.63
-50.37
-42.29
-32.22
-21.30
-10.48
-0.33
8.94
17.44
25.17
31.98
37.47
41.30
43.16
43.09
41.46
39.01
36.43
34.36
33.18
32.91
33.26
33.73
33.85
33.33
32.19
30.73
29.31
28.24
27.57
27.04
26.17
24.39
21.29
16.72
10.91
4.35
-2.25
-8.36
-13.65
-18.20
-22.39
-26.71
-31.65
-37.50
-44.26
-51.63
-58.92
-65.05
-68.66
-68.51
-63.86
-54.97
-43.12
-30.30
-18.40
-8.64
-1.14
4.77
9.90
14.73
19.06
22.39
24.28
24.78
24.47
24.25
24.93
26.76
29.49
32.35
34.53
35.65
35.75
35.38
35.13
35.28
35.52
35.24
33.87
31.15
27.29
22.81
18.11
13.47
9.01
4.78
0.87
-2.59
-5.62
-8.41
-11.34
-14.83
-19.14
-24.34
-30.24
-36.53
-42.81
-48.43
-52.61
-54.42
-52.95
-47.75
-39.04
-27.87
-15.89
-4.84
4.06
10.54
15.12
18.82
22.43
26.12
29.45
31.76
32.63
32.12
30.77
29.28
28.21
27.74
27.73
27.80
27.66
27.18
26.42
25.59
24.71
23.63
21.97
19.48
16.12
12.34
8.77
5.98
4.01
2.42
0.45
-2.52
-6.58
-11.22
-15.61
-19.14
-21.88
-24.52
-28.04
-32.97
-38.82
-44.12
-47.09
-46.49
-42.35
-35.87
-28.65
-21.67
-14.68
-6.57
3.79
16.60
30.59
43.56
53.40
58.88
59.79
56.64
49.94
40.12
27.53
13.04
-1.79
-14.99
-24.88
-30.79
-33.37
-34.32
-35.68
-39.23
-46.00
-56.31
-70.13
-87.20
-107.21
-129.50
-152.99
-175.97
-196.26
-211.66
-220.32
-221.27
-214.70
-202.07
-185.82
-168.94
-154.30
-143.84
-137.86
-134.63
-130.58
-121.22
-102.28
-70.94
-26.49
29.85
95.45
166.67
238.93
306.73
363.97
404.86
425.58
425.66
408.23
378.91
343.77
307.20
271.02
235.02
198.17
160.05
121.59
84.92
52.51
25.99
5.35
-11.32
-27.15
-45.20
-66.88
-91.23
-115.37
-136.15
-152.08
-164.43
-176.96
-194.20
-219.17
-251.73
-288.46
-323.93
-352.89
-372.10
-381.30
-382.72
-379.82
-375.58
-371.48
-367.41
-362.50
-356.09
-348.43
-340.45
-332.86
-325.37
-316.41
-303.71
-285.45
-261.12
-231.86
-200.00
-168.03
-137.59
-108.93
-81.06
-52.49
-22.08
10.16
43.11
74.87
103.67
128.58
149.90
169.07
188.20
209.53
234.97
265.48
300.54
337.84
373.48
402.87
422.02
428.87
423.98
410.16
391.47
371.71
353.49
337.86
324.74
313.40
303.01
292.93
282.54
271.24
258.45
243.83
227.40
209.80
192.33
176.61
164.19
155.70
150.61
147.11
142.70
135.05
122.92
106.70
88.11
69.65
53.67
41.73
34.28
30.65
29.42
28.90
27.63
24.73
20.12
14.36
8.49
3.46
-0.18
-2.53
-4.45
-7.20
-11.98
-19.36
-29.17
-40.64
-52.65
-64.24
-74.86
-84.37
-92.85
-100.39
-106.98
-112.61
-117.32
-121.00
-123.31
-123.48
-120.52
-113.66
-102.67
-88.17
-71.51
-54.33
-38.20
-24.47
-14.18
-8.04
-6.22
-8.17
-12.37
-16.62
-18.78
-17.56
-13.02
-6.59
-0.34
4.04
5.92
5.95
5.43
5.47
6.43
7.85
9.04
9.55
9.58
9.77
10.76
12.86
15.90
19.27
22.31
24.46
25.28
24.44
21.55
16.31
8.76
-0.41
-9.73
-17.22
-20.98
-19.97
-14.53
-6.42
1.94
8.53
12.57
14.76
16.59
19.24
22.79
26.13
27.84
27.16
24.67
21.87
20.38
20.86
22.67
24.31
24.43
22.63
19.62
16.72
14.85
14.11
13.75
12.82
10.87
8.10
5.17
2.72
1.01
-0.28
-1.57
-3.35
-5.93
-9.51
-14.27
-20.36
-27.63
-35.43
-42.54
-47.49
-49.00
-46.56
-40.52
-32.04
-22.49
-13.10
-4.60
2.78
9.06
14.34
18.61
21.81
23.99
25.41
26.37
27.17
27.78
28.00
27.53
26.31
24.66
23.06
21.91
21.17
20.47
19.36
17.65
15.56
13.66
12.47
12.17
12.55
13.07
13.22
12.72
11.55
9.95
8.30
7.02
6.45
6.67
7.36
7.97
7.89
6.90
5.45
4.58
5.71
10.09
18.40
30.32
44.58
59.20
72.13
81.82
87.66
90.06
90.08
88.96
87.67
86.73
86.13
85.65
84.93
83.60
81.42
78.26
74.25
69.71
64.92
59.93
54.40
47.82
39.76
30.20
19.53
8.44
-2.32
-12.19
-20.86
-28.32
-34.71
-40.51
-46.19
-52.27
-59.05
-66.34
-73.60
-80.10
-85.37
-89.53
-93.22
-97.36
-102.66
-109.21
-116.26
-122.34
-125.50
-123.92
-116.57
-103.73
-87.10
-69.34
-53.30
-40.90
-32.64
-27.74
-24.80
-22.74
-21.11
-20.03
-19.62
-19.54
-18.92
-16.92
-13.28
-8.66
-4.35
-1.61
-1.00
-1.93
-3.04
-3.03
-1.32
1.61
4.55
6.33
6.59
6.01
6.04
8.22
13.34
21.25
31.05
41.66
52.05
61.38
68.68
72.66
71.91
65.31
52.78
35.54
16.06
-2.64
-17.70
-27.18
-30.38
-27.83
-21.00
-11.78
-2.14
6.38
13.03
17.81
21.31
24.37
27.38
30.01
31.24
29.81
24.93
17.01
7.56
-1.11
-7.07
-9.44
-8.67
-6.26
-4.07
-3.53
-5.25
-9.06
-14.26
-19.80
-24.47
-26.95
-26.14
-21.66
-14.41
-6.35
0.03
2.98
2.15
-1.59
-6.92
-13.29
-21.55
-33.57
-50.98
-73.84
-99.79
-124.55
-143.46
-153.20
-153.00
-144.69
-131.64
-117.20
-103.38
-90.47
-77.78
-64.47
-50.67
-37.52
-26.55
-18.78
-14.15
-11.62
-9.84
-7.75
-4.92
-1.38
2.84
7.82
13.86
20.95
28.59
35.72
41.04
43.44
42.20
37.03
28.03
15.75
1.16
-14.29
-28.96
-41.47
-51.24
-58.73
-65.25
-72.29
-80.83
-90.65
-100.61
-109.18
-115.16
-118.27
-118.97
-117.97
-115.63
-111.63
-105.16
-95.57
-82.90
-68.15
-53.02
-39.31
-28.33
-20.44
-15.35
-12.22
-10.30
-8.98
-7.80
-6.43
-4.61
-2.33
0.13
2.34
4.10
5.63
7.54
10.45
14.47
19.12
23.54
27.01
29.44
31.18
32.72
34.18
35.24
35.36
34.27
32.20
29.67
27.13
24.55
21.48
17.49
12.73
7.97
4.34
2.59
2.68
3.65
4.01
2.51
-1.20
-6.31
-11.08
-13.41
-11.58
-5.00
5.63
18.39
30.69
40.26
45.62
46.64
44.20
39.75
34.56
29.22
23.63
17.45
10.70
3.98
-1.58
-4.98
-5.85
-4.88
-3.47
-3.10
-4.54
-7.53
-11.05
-13.87
-15.29
-15.32
-14.55
-13.54
-12.66
-11.87
-11.00
-10.03
-9.08
-8.35
-8.05
-8.24
-8.82
-9.70
-10.77
-11.96
-13.23
-14.59
-16.11
-17.90
-19.70
-20.91
-20.53
-17.46
-11.12
-1.75
9.47
20.98
31.37
39.88
46.30
50.66
53.00
53.20
51.21
47.31
42.12
36.36
30.69
25.54
21.18
18.02
16.42
16.46
17.69
18.85
18.37
15.06
8.66
0.06
-9.04
-16.96
-22.71
-26.36
-28.79
-31.07
-33.84
-37.05
-40.00
-41.96
-42.67
-42.58
-42.65
-43.79
-46.18
-49.21
-51.68
-52.41
-50.78
-46.92
-41.32
-34.48
-26.71
-18.12
-9.08
-0.37
6.80
11.29
12.41
10.61
7.17
3.94
2.63
4.16
8.43
14.59
21.43
27.84
33.27
37.61
41.01
43.66
45.43
46.06
45.42
43.68
41.35
39.17
37.58
36.57
35.64
34.04
31.39
27.87
24.26
21.47
20.08
19.98
20.52
20.84
20.29
18.70
16.20
13.08
9.68
6.35
3.62
2.23
2.97
6.22
11.77
18.68
25.48
30.88
34.23
35.60
35.63
35.10
34.46
33.71
32.53
30.54
27.75
24.65
21.94
20.22
19.57
19.49
19.18
17.99
15.87
13.39
11.41
10.51
10.68
11.20
11.11
9.61
6.50
2.20
-2.51
-6.88
-10.48
-13.30
-15.78
-18.52
-22.01
-26.32
-31.22
-36.22
-40.81
-44.71
-47.69
-49.48
-49.63
-47.65
-43.31
-36.86
-29.15
-21.35
-14.50
-9.02
-4.77
-1.13
2.36
5.74
8.52
9.91
9.36
6.91
3.17
-0.85
-4.14
-6.17
-6.94
-6.90
-6.72
-6.98
-8.12
-10.32
-13.55
-17.49
-21.64
-25.27
-27.84
-29.10
-29.30
-29.09
-29.32
-30.69
-33.54
-37.85
-43.18
-48.84
-54.10
-58.34
-61.21
-62.63
-62.75
-61.60
-59.10
-54.88
-48.65
-40.42
-30.74
-20.67
-11.32
-3.38
3.22
9.05
14.84
20.81
26.46
30.78
32.85
32.50
30.44
28.05
26.71
27.10
28.96
31.35
33.25
34.00
33.46
31.87
29.50
26.49
22.85
18.73
14.51
10.74
7.79
5.69
4.01
2.16
-0.27
-3.27
-6.56
-9.85
-13.16
-16.74
-20.78
-24.96
-28.30
-29.41
-27.16
-21.20
-12.19
-1.70
8.56
17.26
23.69
27.82
29.84
30.17
29.14
27.23
25.00
23.12
22.11
22.20
23.26
24.78
26.10
26.64
26.19
24.98
23.60
22.60
22.34
22.58
22.57
21.42
18.65
14.46
9.65
5.16
1.51
-1.43
-4.18
-7.29
-10.81
-14.43
-17.75
-20.56
-22.90
-24.79
-25.88
-25.48
-22.92
-17.91
-10.98
-3.20
4.30
10.92
16.68
21.95
26.90
31.23
34.31
35.41
34.43
31.96
29.21
27.25
26.65
27.06
27.53
27.10
25.32
22.59
19.83
17.82
16.72
15.93
14.45
11.65
7.59
2.93
-1.43
-4.98
-7.80
-10.37
-13.14
-16.23
-19.46
-22.55
-25.58
-28.88
-32.89
-37.53
-42.02
-44.94
-44.88
-41.09
-33.79
-24.28
-14.10
-4.51
4.05
11.67
18.62
24.79
29.64
32.59
33.34
32.28
30.19
28.00
26.35
25.52
25.56
26.32
27.60
28.96
29.95
30.02
28.98
27.13
25.03
23.19
21.52
19.21
15.15
8.73
0.28
-8.73
-16.32
-20.71
-21.00
-17.16
-9.60
1.26
14.96
30.63
46.35
59.24
66.13
64.89
55.69
41.25
26.00
14.29
8.61
8.66
11.62
13.52
11.07
2.94
-10.15
-25.80
-41.24
-54.19
-63.24
-67.67
-67.12
-61.49
-51.03
-36.81
-20.92
-6.26
4.07
8.01
5.03
-3.55
-15.28
-27.54
-38.34
-46.62
-52.16
-55.10
-55.65
-54.17
-51.24
-47.70
-44.35
-41.57
-39.04
-36.07
-31.93
-26.37
-19.90
-13.37
-7.54
-2.84
0.55
2.37
2.09
-0.79
-6.28
-13.48
-20.57
-25.41
-26.44
-23.25
-16.72
-8.57
-0.45
6.65
12.53
17.55
22.03
25.91
28.71
29.92
29.38
27.57
25.49
24.28
24.76
27.13
30.92
35.25
39.08
41.59
42.30
41.08
38.12
33.75
28.29
22.13
15.69
9.44
3.85
-0.71
-4.24
-7.11
-9.87
-13.13
-17.14
-21.69
-26.20
-30.01
-32.61
-34.05
-34.74
-35.19
-35.71
-36.28
-36.55
-36.11
-34.66
-32.16
-28.68
-24.29
-18.85
-12.18
-4.20
4.77
14.01
22.56
29.47
34.18
36.58
37.10
36.43
35.44
34.94
35.50
37.36
40.34
43.90
47.27
49.53
49.91
48.02
44.11
39.18
34.65
31.99
32.04
34.64
38.70
42.72
45.46
46.47
46.08
45.03
43.82
42.53
40.89
38.59
35.47
31.51
26.84
21.59
16.36
12.34
11.51
16.13
27.89
46.99
71.66
98.39
122.84
141.17
150.86
151.45
144.08
131.01
114.53
96.37
77.33
57.34
36.04
13.14
-11.03
-35.53
-58.88
-79.36
-95.56
-106.70
-112.99
-115.51
-115.78
-115.12
-114.20
-112.94
-110.93
-107.93
-104.29
-100.77
-98.01
-96.03
-94.03
-91.02
-86.41
-80.47
-74.36
-69.50
-67.03
-67.29
-69.70
-73.08
-76.00
-77.18
-75.67
-71.03
-63.32
-53.04
-40.95
-27.84
-14.56
-1.85
9.60
19.12
26.27
30.91
33.24
33.64
32.59
30.54
27.88
25.15
22.89
21.56
21.33
21.94
22.69
22.79
21.67
19.32
16.27
13.26
10.96
9.72
9.49
9.98
10.77
11.39
11.34
10.23
7.79
4.00
-0.92
-6.53
-12.31
-17.80
-22.87
-27.54
-32.13
-37.01
-42.70
-49.54
-57.47
-65.72
-72.63
-76.05
-74.10
-65.95
-52.43
-35.64
-18.21
-2.24
11.25
22.29
31.32
38.49
43.51
45.96
45.84
43.99
41.67
39.96
39.21
39.05
38.76
37.80
36.11
34.09
32.29
31.14
30.74
30.92
31.08
30.61
28.99
26.05
22.02
17.45
12.96
9.00
5.64
2.65
-0.24
-3.17
-6.10
-8.82
-11.13
-12.92
-14.23
-15.29
-16.63
-18.77
-21.92
-25.52
-28.08
-27.55
-22.14
-11.12
4.83
23.85
43.63
62.10
77.61
89.20
96.60
100.23
100.98
100.15
99.00
98.46
98.82
99.65
100.42
100.61
100.10
98.72
96.01
91.14
83.31
72.17
57.60
40.20
21.10
2.04
-14.84
-27.12
-32.28
-28.42
-15.22
4.24
25.00
41.80
50.82
50.39
40.98
24.89
5.28
-14.73
-34.92
-55.31
-75.08
-92.00
-103.69
-109.00
-107.86
-101.08
-89.97
-79.68
-74.28
-75.37
-81.07
-88.33
-95.07
-100.63
-105.36
-110.26
-121.45
-143.43
-177.68
-221.34
-270.33
-322.31
-376.98
-435.06
-467.06
-453.60
-395.99
-316.92
-239.83
-176.63
-129.54
-96.31
-73.28
-56.45
-51.73
-56.59
-67.46
-78.71
-85.78
-87.29
-84.57
-79.98
-75.53
-75.85
-81.12
-90.73
-100.76
-106.88
-106.74
-100.12
-88.01
-71.72
-54.73
-39.15
-26.34
-15.55
-5.65
3.89
13.22
22.72
33.06
43.85
54.82
65.00
73.81
80.69
84.97
86.29
84.86
81.60
77.47
73.68
70.87
69.44
69.20
69.61
70.07
70.36
70.40
70.02
68.61
65.14
59.12
51.05
42.77
36.78
35.14
38.54
46.22
56.46
67.12
75.93
80.41
78.20
67.89
50.27
28.94
9.58
-2.23
-3.39
5.39
20.28
36.61
51.28
63.74
75.39
87.83
101.37
114.97
127.09
136.99
145.29
153.60
163.51
176.12
191.63
209.59
229.19
249.18
267.70
282.40
290.88
291.66
284.73
271.72
255.13
237.28
219.45
201.72
183.52
164.49
144.93
125.73
107.86
91.81
77.45
64.23
51.66
39.63
28.45
18.71
10.97
5.48
2.13
0.42
-0.32
-0.73
-1.19
-1.73
-2.12
-2.08
-1.52
-0.75
-0.35
-0.90
-2.70
-5.65
-9.23
-12.67
-15.20
-16.23
-15.57
-13.49
-10.81
-8.56
-7.67
-8.51
-10.71
-13.32
-15.16
-15.51
-14.33
-12.35
-10.55
-9.74
-10.03
-10.77
-10.79
-8.85
-4.23
2.91
11.50
19.88
26.35
29.73
29.60
26.23
20.33
12.68
4.07
-4.71
-12.78
-19.21
-23.21
-24.47
-23.35
-20.76
-17.95
-16.05
-15.75
-17.20
-20.05
-23.65
-27.27
-30.27
-32.24
-32.99
-32.56
-31.16
-29.15
-26.93
-24.91
-23.42
-22.62
-22.51
-22.95
-23.76
-24.79
-26.01
-27.44
-29.17
-31.18
-33.36
-35.51
-37.43
-38.97
-40.18
-41.23
-42.39
-43.93
-46.02
-48.72
-51.84
-54.95
-57.35
-58.23
-56.86
-52.90
-46.53
-38.44
-29.63
-21.09
-13.47
-7.04
-1.74
2.59
6.10
8.77
10.54
11.38
11.38
10.78
9.91
9.07
8.49
8.30
8.44
8.78
9.17
9.40
9.31
8.75
7.61
5.85
3.56
0.91
-1.88
-4.58
-7.13
-9.59
-12.13
-14.91
-17.95
-21.09
-24.07
-26.67
-28.87
-30.96
-33.40
-36.63
-40.77
-45.38
-49.50
-51.93
-51.61
-48.04
-41.50
-32.93
-23.68
-15.19
-8.63
-4.76
-3.59
-4.36
-5.59
-5.62
-3.18
1.90
8.59
14.93
18.91
19.18
15.67
9.45
2.32
-3.82
-7.50
-7.90
-4.93
0.79
8.17
15.89
22.72
27.80
30.70
31.46
30.35
27.86
24.57
21.10
18.03
15.74
14.29
13.38
12.46
10.91
8.29
4.45
-0.44
-6.02
-11.76
-17.13
-21.57
-24.58
-25.71
-24.69
-21.44
-16.17
-9.44
-2.03
5.14
11.26
15.74
18.32
19.06
18.21
16.18
13.39
10.32
7.45
5.15
3.68
3.07
3.15
3.63
4.23
4.72
5.03
5.16
5.11
4.79
4.05
2.71
0.69
-1.92
-4.84
-7.70
-10.18
-12.14
-13.61
-14.84
-16.15
-17.86
-20.31
-23.72
-28.12
-33.29
-38.67
-43.38
-46.46
-47.11
-44.99
-40.39
-34.13
-27.29
-20.84
-15.35
-10.92
-7.31
-4.31
-1.95
-0.68
-1.14
-3.85
-8.94
-15.98
-24.07
-32.04
-38.66
-42.85
-44.00
-42.26
-38.81
-35.59
-34.61
-36.98
-42.14
-47.82
-51.01
-49.28
-41.88
-29.98
-15.93
-2.01
10.51
21.48
31.38
40.47
48.46
54.63
58.43
59.84
59.45
58.08
56.31
54.24
51.68
48.49
44.88
41.48
39.11
38.44
39.66
42.54
46.58
51.23
56.00
60.49
64.39
67.44
69.50
70.58
70.74
69.98
68.24
65.43
61.54
56.83
51.68
46.48
41.47
36.64
31.91
27.26
22.81
18.69
14.83
10.89
6.37
0.93
-5.36
-12.07
-18.49
-24.04
-28.38
-31.47
-33.49
-34.73
-35.56
-36.43
-37.81
-40.07
-43.25
-47.01
-50.57
-52.97
-53.39
-51.37
-47.01
-40.90
-33.89
-26.85
-20.44
-15.04
-10.75
-7.50
-5.15
-3.52
-2.41
-1.56
-0.80
-0.11
0.33
0.14
-1.04
-3.34
-6.49
-9.92
-12.97
-15.07
-16.05
-16.13
-15.90
-16.19
-17.86
-21.57
-27.55
-35.33
-43.77
-51.24
-56.09
-57.21
-54.41
-48.54
-41.10
-33.74
-27.70
-23.55
-21.32
-20.73
-21.49
-23.26
-25.57
-27.53
-27.93
-25.47
-19.32
-9.46
3.25
17.39
31.45
44.21
54.86
62.84
67.75
69.26
67.44
62.86
56.66
50.24
44.71
40.52
37.37
34.60
31.66
28.53
25.67
23.67
22.79
22.80
23.18
23.61
24.31
26.04
29.58
35.13
41.92
48.47
53.06
54.48
52.36
47.12
39.52
30.28
19.77
8.16
-4.34
-17.30
-29.90
-41.13
-50.09
-56.23
-59.56
-60.73
-60.73
-60.55
-60.72
-61.10
-61.02
-59.63
-56.45
-51.63
-45.93
-40.34
-35.63
-32.07
-29.41
-27.10
-24.76
-22.30
-20.00
-18.18
-17.02
-16.36
-15.83
-15.04
-13.89
-12.66
-11.89
-12.20
-13.88
-16.81
-20.47
-24.23
-27.55
-30.24
-32.45
-34.55
-36.97
-40.11
-44.19
-49.25
-55.09
-61.20
-66.78
-70.86
-72.52
-71.19
-66.84
-60.04
-51.85
-43.58
-36.39
-31.05
-27.66
-25.66
-24.18
-22.33
-19.64
-16.20
-12.57
-9.57
-8.00
-8.42
-11.21
-16.50
-24.06
-33.24
-42.85
-51.31
-57.00
-58.73
-56.07
-49.47
-40.06
-29.37
-18.83
-9.58
-2.19
3.27
7.11
9.79
11.66
12.80
13.13
12.53
11.01
8.72
5.80
2.29
-1.80
-6.32
-10.70
-13.90
-14.70
-12.22
-6.29
2.37
12.44
22.56
31.77
39.73
46.46
52.10
56.66
59.94
61.82
62.39
62.03
61.27
60.57
60.12
59.79
59.25
58.17
56.37
53.90
51.01
48.01
45.15
42.50
39.94
37.20
33.95
29.99
25.28
19.99
14.48
9.15
4.20
-0.35
-4.72
-9.19
-13.96
-19.07
-24.43
-29.93
-35.43
-40.61
-44.93
-47.53
-47.51
-44.18
-37.48
-28.09
-17.24
-6.34
3.47
11.58
17.88
22.62
26.09
28.53
30.08
30.87
31.05
30.84
30.46
30.04
29.60
29.01
28.16
27.01
25.66
24.29
23.03
21.85
20.54
18.78
16.31
13.06
9.21
5.10
1.18
-2.22
-4.92
-6.98
-8.59
-10.07
-11.76
-13.95
-16.84
-20.41
-24.33
-27.97
-30.37
-30.61
-27.93
-22.07
-13.43
-2.94
8.20
18.85
28.26
36.19
42.82
48.55
53.73
58.57
63.07
67.17
70.76
73.82
76.37
78.53
80.53
82.76
85.77
90.13
96.26
104.16
113.30
122.66
130.93
136.87
139.65
139.13
135.90
131.15
126.25
122.19
119.09
115.99
111.15
102.73
89.62
72.01
51.37
29.95
9.92
-7.28
-21.21
-32.18
-40.79
-47.51
-52.58
-56.21
-58.75
-60.80
-63.06
-65.98
-69.48
-72.86
-75.07
-75.14
-72.66
-68.03
-62.32
-56.90
-52.90
-50.77
-50.22
-50.44
-50.49
-49.75
-48.12
-45.99
-44.01
-42.78
-42.62
-43.51
-45.20
-47.27
-49.39
-51.38
-53.19
-54.83
-56.29
-57.52
-58.50
-59.35
-60.36
-61.89
-64.16
-67.00
-69.80
-71.53
-71.11
-67.79
-61.41
-52.49
-42.02
-31.13
-20.69
-11.19
-2.76
4.60
10.78
15.51
18.49
19.61
19.17
17.86
16.51
15.77
15.85
16.48
17.09
17.13
16.39
15.01
13.45
12.18
11.49
11.28
11.11
10.38
8.54
5.26
0.54
-5.21
-11.10
-15.74
-17.60
-15.41
-8.85
1.15
12.37
22.00
27.56
27.71
22.60
13.55
2.48
-8.75
-18.66
-26.18
-30.59
-31.51
-29.05
-23.86
-17.06
-9.87
-3.23
2.42
7.14
11.23
15.01
18.51
21.59
23.99
25.47
25.92
25.35
23.93
21.99
20.03
18.57
18.02
18.50
19.76
21.26
22.45
22.92
22.55
21.48
19.90
17.91
15.46
12.43
8.72
4.37
-0.39
-5.29
-10.05
-14.55
-18.80
-22.89
-27.00
-31.26
-35.79
-40.51
-45.16
-49.14
-51.60
-51.60
-48.47
-42.07
-32.94
-22.22
-11.22
-1.03
7.82
15.27
21.56
26.77
30.76
33.20
33.90
33.07
31.35
29.58
28.43
28.19
28.66
29.36
29.79
29.62
28.73
27.14
24.98
22.41
19.56
16.51
13.20
9.47
5.14
0.21
-5.04
-10.11
-14.51
-17.98
-20.67
-23.06
-25.72
-29.05
-33.12
-37.77
-42.66
-47.40
-51.49
-54.32
-55.10
-53.07
-47.77
-39.30
-28.38
-16.15
-3.85
7.51
17.28
25.12
30.81
34.16
35.07
33.73
30.79
27.36
24.66
23.58
24.28
26.10
27.94
28.81
28.30
26.73
24.81
23.20
22.14
21.49
21.15
21.38
22.84
26.22
31.61
38.16
44.21
47.91
47.93
43.91
36.32
26.13
14.26
1.40
-11.99
-25.43
-38.41
-50.25
-60.33
-68.09
-73.05
-74.87
-73.41
-68.87
-61.89
-53.46
-44.71
-36.62
-29.71
-24.04
-19.30
-15.12
-11.25
-7.70
-4.67
-2.34
-0.83
-0.03
0.33
0.53
0.79
1.10
1.41
1.64
1.78
1.95
2.31
2.87
3.47
3.81
3.51
2.35
0.32
-2.38
-5.45
-8.64
-11.87
-15.18
-18.73
-22.67
-27.05
-31.78
-36.71
-41.68
-46.68
-51.86
-57.47
-63.63
-70.10
-76.06
-80.29
-81.45
-78.64
-71.79
-61.78
-50.27
-39.20
-30.40
-25.23
-24.38
-27.75
-34.43
-42.82
-51.07
-57.50
-61.15
-62.01
-61.01
-59.49
-58.69
-59.20
-60.70
-62.18
-62.25
-59.73
-54.08
-45.63
-35.42
-24.73
-14.61
-5.50
2.69
10.32
17.53
24.08
29.49
33.46
36.21
38.60
41.73
46.35
52.34
58.69
63.84
66.35
65.42
61.13
54.34
46.37
38.68
32.59
29.17
29.07
32.38
38.60
46.63
55.07
62.56
68.11
71.30
72.24
71.37
69.25
66.43
63.30
60.14
57.17
54.51
52.20
50.18
48.24
46.04
43.26
39.72
35.44
30.71
25.97
21.57
17.62
13.98
10.30
6.28
1.80
-3.02
-7.94
-12.77
-17.46
-22.19
-27.24
-32.89
-39.36
-46.73
-54.91
-63.59
-72.08
-79.43
-84.50
-86.32
-84.45
-79.21
-71.70
-63.48
-56.35
-51.95
-51.64
-56.15
-65.28
-77.54
-90.08
-99.36
-102.13
-96.74
-83.75
-65.65
-45.83
-27.10
-10.84
2.99
14.93
25.07
32.30
34.28
28.19
12.07
-13.92
-46.76
-80.71
-108.64
-123.97
-122.40
-102.59
-65.96
-16.00
42.20
102.27
156.89
198.90
223.18
228.60
218.59
199.74
178.81
159.91
143.42
127.29
109.65
90.70
72.81
58.80
49.79
44.21
38.76
30.39
18.12
3.37
-10.89
-22.01
-28.94
-32.51
-34.57
-36.75
-39.57
-42.34
-43.61
-42.03
-37.00
-28.92
-18.94
-8.55
0.91
8.60
14.34
18.48
21.62
24.26
26.56
28.35
29.27
29.07
27.88
26.16
24.51
23.27
22.31
21.01
18.59
14.54
9.07
3.16
-1.69
-4.04
-3.07
1.09
7.40
14.33
20.46
24.97
27.75
29.22
29.89
29.97
29.34
27.68
24.82
21.01
16.87
13.25
10.87
10.10
10.92
12.93
15.57
18.32
20.76
22.67
23.98
24.66
24.67
23.94
22.37
19.97
16.89
13.42
9.99
6.96
4.54
2.74
1.38
0.16
-1.22
-3.09
-5.77
-9.57
-14.58
-20.52
-26.51
-31.11
-32.75
-30.30
-23.66
-14.08
-3.71
5.06
10.56
12.37
11.35
9.15
7.52
7.78
10.58
16.03
23.85
33.46
43.93
53.95
61.96
66.46
66.57
62.39
55.08
46.51
38.61
32.58
28.51
25.42
21.76
16.15
7.96
-2.49
-14.20
-25.94
-36.70
-45.97
-53.67
-60.04
-65.40
-70.16
-74.67
-79.11
-83.36
-86.82
-88.49
-87.25
-82.28
-73.42
-61.27
-47.07
-32.30
-18.27
-5.85
4.66
13.31
20.31
25.90
30.26
33.62
36.30
38.77
41.43
44.49
47.78
50.80
52.95
53.83
53.43
52.04
50.05
47.69
44.84
41.15
36.32
30.23
23.07
15.28
7.27
-0.69
-8.56
-16.51
-24.87
-33.98
-44.17
-55.61
-68.27
-81.81
-95.54
-108.51
-119.58
-127.72
-132.20
-132.93
-130.57
-126.51
-122.43
-119.80
-119.47
-121.33
-124.54
-127.90
-130.35
-131.20
-130.19
-127.17
-121.80
-113.49
-101.60
-85.90
-66.85
-45.75
-24.31
-4.16
13.57
28.49
40.69
50.38
57.68
62.56
65.15
65.98
65.99
66.21
67.27
69.07
70.81
71.33
69.70
65.51
59.00
50.89
42.06
33.34
25.41
18.84
14.09
11.60
11.72
14.72
20.60
29.06
39.48
50.97
62.63
73.70
83.65
92.08
98.60
102.76
104.19
102.78
98.89
93.20
86.51
79.34
71.76
63.56
54.48
44.54
34.14
23.89
14.34
5.71
-2.03
-9.11
-15.70
-21.90
-27.68
-32.97
-37.68
-41.71
-44.91
-47.11
-48.20
-48.25
-47.55
-46.51
-45.52
-44.83
-44.57
-44.79
-45.55
-46.86
-48.62
-50.36
-51.26
-50.30
-46.60
-39.69
-29.78
-17.72
-4.69
8.03
19.40
28.68
35.53
39.92
42.18
42.90
42.90
43.05
43.95
45.78
48.23
50.66
52.44
53.34
53.55
53.50
53.47
53.16
51.86
48.67
43.17
35.71
27.45
19.83
14.02
10.34
8.16
6.34
3.76
-0.19
-5.46
-11.56
-17.95
-24.29
-30.46
-36.41
-41.86
-46.23
-48.73
-48.68
-45.79
-40.28
-32.78
-24.11
-15.02
-6.06
2.39
10.07
16.78
22.30
26.43
29.08
30.26
30.30
29.83
29.64
30.46
32.73
36.33
40.68
44.88
47.97
49.30
48.59
45.98
41.87
36.80
31.29
25.81
20.67
16.03
11.97
8.47
5.46
2.88
0.66
-1.39
-3.67
-6.82
-11.60
-18.58
-27.70
-37.99
-47.53
-54.09
-55.92
-52.47
-44.63
-34.34
-23.68
-14.05
-5.79
1.60
8.75
15.88
22.59
28.20
32.29
34.95
36.72
38.13
39.17
39.14
36.85
31.11
21.28
7.42
-9.76
-29.32
-50.20
-71.25
-90.88
-107.04
-117.63
-121.24
-118.01
-109.90
-100.16
-92.10
-87.73
-87.24
-89.28
-92.05
-94.41
-96.31
-98.46
-101.46
-105.06
-108.06
-108.75
-105.68
-98.17
-86.42
-71.24
-53.56
-34.16
-13.60
7.63
28.81
48.87
66.42
80.05
88.75
92.36
91.59
87.88
82.80
77.52
72.51
67.49
61.76
54.54
45.35
34.00
20.65
5.71
-10.09
-25.68
-39.71
-50.85
-58.14
-61.32
-60.95
-58.11
-53.90
-49.07
-43.75
-37.56
-30.00
-20.87
-10.51
0.25
10.32
18.73
24.77
28.22
29.23
28.31
26.25
24.08
22.93
23.86
27.59
34.27
43.37
53.83
64.29
73.59
81.00
86.43
90.28
93.17
95.58
97.71
99.38
100.19
99.67
97.51
93.58
88.00
81.02
72.96
64.16
54.90
45.45
36.03
26.93
18.39
10.61
3.68
-2.53
-8.23
-13.64
-18.95
-24.18
-29.27
-34.11
-38.64
-42.86
-46.80
-50.48
-53.98
-57.42
-60.97
-64.74
-68.67
-72.35
-75.05
-75.89
-74.11
-69.38
-61.95
-52.60
-42.39
-32.33
-23.12
-14.99
-7.87
-1.62
3.81
8.24
11.43
13.26
13.89
13.80
13.59
13.70
14.28
15.16
16.00
16.56
16.76
16.68
16.45
16.05
15.31
13.91
11.56
8.19
4.01
-0.52
-4.89
-8.75
-12.00
-14.87
-17.66
-20.67
-24.13
-28.14
-32.71
-37.72
-42.81
-47.33
-50.34
-50.89
-48.29
-42.47
-34.03
-24.01
-13.64
-3.88
4.67
11.85
17.72
22.37
25.86
28.21
29.52
30.00
30.07
30.13
30.44
30.95
31.29
30.99
29.67
27.33
24.41
21.63
19.58
18.50
18.08
17.58
16.20
13.44
9.29
4.18
-1.28
-6.54
-11.37
-15.76
-19.88
-23.91
-28.04
-32.37
-37.00
-41.88
-46.73
-50.85
-53.25
-52.91
-49.17
-42.06
-32.37
-21.39
-10.49
-0.71
7.47
14.02
19.17
23.10
25.85
27.36
27.61
26.75
25.10
23.07
21.02
19.09
17.26
15.40
13.39
11.16
8.72
6.08
3.27
0.32
-2.78
-5.98
-9.19
-12.19
-14.76
-16.60
-17.47
-17.21
-15.87
-13.70
-11.20
-8.99
-7.70
-7.85
-9.65
-13.08
-17.73
-22.91
-27.65
-30.86
-31.63
-29.44
-24.37
-17.08
-8.53
0.33
8.84
16.77
24.16
31.08
37.40
42.76
46.74
49.02
49.62
48.91
47.52
46.11
45.18
44.94
45.27
45.86
46.34
46.46
46.11
45.32
44.12
42.44
40.13
36.95
32.79
27.71
21.97
15.95
9.95
4.16
-1.36
-6.65
-11.79
-16.83
-21.87
-27.08
-32.69
-38.81
-45.34
-51.80
-57.30
-60.77
-61.18
-57.91
-51.03
-41.30
-29.93
-18.25
-7.28
2.43
10.79
17.91
23.83
28.43
31.46
32.82
32.70
31.67
30.47
29.68
29.50
29.67
29.69
29.09
27.72
25.74
23.53
21.38
19.31
17.10
14.40
10.94
6.76
2.13
-2.51
-6.73
-10.29
-13.13
-15.37
-17.20
-18.95
-20.98
-23.71
-27.48
-32.40
-38.19
-44.04
-48.73
-50.84
-49.24
-43.37
-33.57
-20.96
-7.13
6.29
18.11
27.79
35.34
41.09
45.39
48.51
50.60
51.87
52.60
53.13
53.69
54.34
54.95
55.26
55.07
54.27
52.89
51.03
48.66
45.69
41.98
37.48
32.40
27.13
22.28
18.36
15.61
13.90
12.72
11.30
8.87
4.82
-1.17
-9.04
-18.47
-28.76
-39.03
-48.11
-54.86
-58.26
-57.83
-53.75
-46.89
-38.64
-30.49
-23.67
-18.86
-16.16
-15.28
-15.73
-17.07
-18.95
-21.15
-23.48
-25.80
-28.15
-30.69
-33.69
-37.32
-41.45
-45.63
-49.13
-51.26
-51.66
-50.46
-48.29
-46.04
-44.49
-44.10
-44.85
-46.38
-48.07
-49.34
-49.77
-49.21
-47.85
-46.12
-44.62
-43.88
-44.17
-45.30
-46.58
-46.96
-45.34
-40.91
-33.50
-23.64
-12.49
-1.44
8.25
15.80
21.03
24.24
25.98
26.89
27.53
28.51
30.39
33.65
38.41
44.29
50.40
55.54
58.78
59.80
59.09
57.64
56.49
56.20
56.60
57.00
56.58
54.82
51.61
47.23
42.08
36.45
30.44
24.06
17.34
10.42
3.54
-3.10
-9.46
-15.67
-21.95
-28.40
-34.79
-40.51
-44.66
-46.33
-44.91
-40.38
-33.30
-24.66
-15.54
-6.77
1.23
8.51
15.25
21.64
27.63
32.96
37.30
40.45
42.50
43.80
44.87
46.21
48.12
50.62
53.44
56.13
58.06
58.64
57.32
53.74
47.83
39.76
29.98
19.14
7.97
-2.88
-13.08
-22.78
-32.54
-42.99
-54.43
-66.43
-77.92
-87.58
-94.46
-98.40
-100.15
-100.86
-101.42
-102.01
-102.03
-100.47
-96.52
-89.94
-81.13
-70.75
-59.40
-47.34
-34.62
-21.29
-7.73
5.21
16.34
24.53
29.05
29.89
27.80
24.03
19.97
16.77
15.04
14.80
15.65
16.97
18.30
19.34
20.07
20.55
20.80
20.74
20.24
19.18
17.48
15.21
12.47
9.43
6.24
3.04
-0.08
-3.14
-6.20
-9.42
-12.95
-16.92
-21.45
-26.60
-32.41
-38.72
-45.04
-50.51
-53.99
-54.42
-51.18
-44.37
-34.78
-23.70
-12.41
-1.93
7.15
14.65
20.55
24.90
27.71
29.08
29.24
28.60
27.71
27.04
26.77
26.68
26.25
24.91
22.47
19.28
16.27
14.50
14.77
17.23
21.45
26.72
32.46
38.49
44.94
51.96
59.43
66.92
73.82
79.69
84.40
88.10
90.97
92.94
93.61
92.37
88.70
82.47
74.12
64.58
55.03
46.47
39.39
33.71
28.74
23.46
16.69
7.36
-5.30
-21.50
-40.52
-60.69
-79.57
-94.51
-103.39
-105.30
-100.75
-91.43
-79.59
-67.31
-56.08
-46.58
-38.83
-32.45
-26.95
-21.94
-17.31
-13.12
-9.61
-6.96
-5.20
-4.24
-3.88
-3.97
-4.44
-5.25
-6.37
-7.69
-9.17
-10.88
-13.05
-15.98
-19.69
-23.75
-27.14
-28.47
-26.45
-20.37
-10.43
2.33
16.24
29.61
41.06
49.87
55.89
59.41
60.93
60.93
59.81
57.89
55.46
52.80
50.23
48.01
46.31
45.13
44.31
43.50
42.27
40.17
36.82
32.04
25.89
18.65
10.73
2.60
-5.35
-12.78
-19.46
-25.22
-30.03
-33.98
-37.38
-40.69
-44.43
-49.02
-54.51
-60.47
-65.93
-69.60
-70.22
-66.94
-59.69
-49.16
-36.60
-23.40
-10.66
0.92
11.05
19.63
26.60
31.84
35.34
37.20
37.77
37.54
37.02
36.61
36.53
36.73
37.02
37.15
36.99
36.63
36.34
36.42
36.95
37.66
37.88
36.80
33.79
28.65
21.75
13.86
5.93
-1.15
-6.77
-10.70
-13.05
-14.34
-15.36
-17.03
-20.22
-25.41
-32.40
-40.28
-47.54
-52.49
-53.87
-51.21
-45.02
-36.63
-27.69
-19.62
-13.24
-8.66
-5.46
-3.16
-1.48
-0.47
-0.49
-1.89
-4.84
-9.22
-14.62
-20.47
-26.10
-30.83
-34.06
-35.39
-34.75
-32.42
-28.99
-25.07
-21.10
-17.20
-13.30
-9.33
-5.44
-2.07
0.18
0.84
-0.27
-2.97
-6.84
-11.40
-16.25
-21.10
-25.84
-30.47
-35.19
-40.27
-46.04
-52.58
-59.50
-65.81
-69.96
-70.21
-65.18
-54.41
-38.78
-20.37
-1.96
13.77
25.07
31.48
33.70
33.10
31.00
28.23
25.00
21.18
16.64
11.55
6.37
1.62
-2.34
-5.40
-7.69
-9.41
-10.69
-11.53
-11.95
-12.07
-12.10
-12.37
-13.08
-14.22
-15.51
-16.53
-16.87
-16.33
-14.94
-12.97
-10.80
-8.88
-7.58
-7.26
-8.14
-10.36
-13.93
-18.58
-23.75
-28.54
-31.76
-32.19
-28.95
-21.73
-10.95
2.34
16.76
30.98
43.94
55.04
64.00
70.73
75.22
77.47
77.57
75.82
72.75
69.13
65.75
63.28
62.01
61.82
62.30
62.96
63.43
63.51
63.17
62.40
61.10
59.10
56.19
52.25
47.30
41.43
34.85
27.76
20.39
13.01
5.90
-0.72
-6.77
-12.30
-17.57
-22.88
-28.44
-34.27
-40.03
-44.98
-48.21
-48.72
-45.92
-39.70
-30.63
-19.78
-8.41
2.31
11.57
18.97
24.44
28.13
30.26
31.10
30.96
30.13
28.91
27.55
26.20
24.91
23.60
22.08
20.16
17.64
14.50
10.91
7.19
3.60
0.27
-2.92
-6.34
-10.31
-14.94
-20.03
-25.08
-29.55
-33.17
-36.00
-38.44
-41.07
-44.41
-48.75
-54.15
-60.33
-66.69
-72.25
-75.81
-76.15
-72.45
-64.64
-53.62
-40.93
-28.33
-17.26
-8.49
-2.11
2.25
5.06
6.69
7.39
7.37
6.94
6.47
6.33
6.76
7.81
9.26
10.80
12.07
12.84
13.10
12.98
12.72
12.47
12.19
11.66
10.49
8.37
5.16
0.97
-3.81
-8.67
-13.21
-17.14
-20.46
-23.34
-26.04
-28.89
-32.21
-36.22
-41.01
-46.33
-51.48
-55.35
-56.65
-54.40
-48.29
-38.87
-27.40
-15.33
-3.86
6.42
15.39
23.27
30.15
35.89
40.15
42.65
43.35
42.62
41.08
39.42
38.10
37.29
36.84
36.47
35.96
35.18
34.15
32.91
31.43
29.65
27.50
24.90
21.87
18.41
14.55
10.33
5.89
1.43
-2.70
-6.27
-9.18
-11.62
-14.01
-16.91
-20.73
-25.69
-31.72
-38.47
-45.30
-51.39
-55.73
-57.34
-55.50
-50.01
-41.31
-30.44
-18.73
-7.48
2.33
10.22
16.06
20.00
22.27
23.18
23.10
22.50
21.82
21.47
21.61
22.19
22.99
23.72
24.17
24.23
23.91
23.27
22.39
21.28
19.97
18.36
16.38
13.96
11.06
7.73
4.09
0.31
-3.48
-7.24
-10.96
-14.69
-18.43
-22.22
-26.12
-30.32
-35.05
-40.41
-46.12
-51.44
-55.29
-56.59
-54.63
-49.36
-41.28
-31.25
-20.12
-8.63
2.69
13.28
22.62
30.26
36.05
40.31
43.80
47.38
51.64
56.59
61.65
66.04
69.20
71.14
72.42
73.73
75.49
77.52
79.06
79.12
76.98
72.39
65.63
57.26
47.84
37.67
26.82
15.13
2.44
-11.28
-25.73
-40.30
-54.00
-65.75
-74.44
-79.10
-78.97
-73.53
-62.67
-47.00
-28.05
-8.07
10.35
25.07
35.02
40.32
42.05
41.63
40.23
38.57
36.97
35.62
34.69
34.32
34.44
34.79
35.00
34.78
34.10
33.17
32.33
31.81
31.57
31.33
30.67
29.23
26.99
24.23
21.39
18.81
16.46
13.92
10.49
5.59
-1.02
-9.09
-18.03
-27.19
-36.08
-44.46
-52.37
-60.02
-67.72
-75.80
-84.49
-93.84
-103.53
-112.83
-120.75
-126.23
-128.51
-127.29
-122.94
-116.38
-108.95
-102.12
-97.11
-94.78
-95.65
-100.31
-109.74
-125.13
-146.98
-173.97
-202.22
-225.78
-238.35
-235.50
-216.19
-182.87
-140.08
-92.42
-43.24
5.62
53.10
98.00
138.72
173.73
202.56
226.25
247.20
267.95
289.68
311.22
328.77
337.14
331.64
310.18
274.28
228.73
179.88
133.34
92.41
57.71
28.21
2.69
-19.13
-36.51
-48.41
-54.51
-55.75
-53.96
-51.16
-48.61
-46.42
-43.88
-40.27
-35.56
-30.66
-27.04
-25.96
-27.73
-31.43
-35.25
-37.22
-36.03
-31.48
-24.44
-16.34
-8.62
-2.30
2.13
4.64
5.41
4.64
2.60
-0.47
-4.17
-8.15
-12.07
-15.80
-19.44
-23.18
-27.27
-31.74
-36.45
-41.09
-45.29
-48.88
-51.90
-54.66
-57.45
-60.34
-62.90
-64.31
-63.58
-60.06
-53.70
-45.23
-35.86
-26.84
-19.07
-12.84
-7.97
-4.02
-0.69
2.10
4.21
5.48
5.96
6.00
6.10
6.76
8.15
10.10
12.14
13.72
14.52
14.49
13.90
13.04
12.12
11.08
9.69
7.69
4.93
1.52
-2.21
-5.84
-9.04
-11.65
-13.78
-15.71
-17.85
-20.54
-24.01
-28.32
-33.34
-38.73
-43.95
-48.26
-50.85
-50.97
-48.20
-42.59
-34.67
-25.22
-15.09
-4.89
5.04
14.54
23.39
31.20
37.40
41.43
42.96
42.09
39.33
35.34
30.72
25.86
20.77
15.25
9.00
1.78
-6.50
-15.71
-25.58
-35.69
-45.65
-55.14
-64.08
-72.64
-81.08
-89.67
-98.41
-107.03
-115.08
-122.07
-127.68
-131.90
-134.95
-137.20
-138.94
-140.35
-141.28
-141.39
-140.02
-136.23
-128.87
-116.78
-99.14
-75.90
-47.99
-17.26
13.89
43.29
69.44
91.90
111.06
127.64
142.20
154.73
164.79
171.69
174.97
174.56
170.78
164.24
155.61
145.54
134.61
123.36
112.30
101.90
92.55
84.50
77.89
72.72
68.91
66.27
64.50
63.23
62.10
60.85
59.38
57.72
56.02
54.38
52.81
51.26
49.65
47.93
46.18
44.59
43.41
42.99
43.69
45.89
49.88
55.57
62.31
68.70
72.70
72.15
65.47
52.19
33.26
10.83
-12.39
-33.83
-51.75
-65.46
-75.34
-82.37
-87.73
-92.28
-96.33
-99.75
-102.34
-104.22
-106.21
-109.75
-116.74
-129.15
-148.67
-176.37
-212.14
-254.03
-297.80
-337.10
-364.83
-375.13
-365.35
-336.88
-294.53
-244.53
-192.31
-140.95
-90.94
-41.14
9.76
62.00
114.25
163.90
207.71
242.58
266.10
276.86
274.59
260.25
236.19
206.12
174.71
146.65
125.18
110.98
101.87
93.97
83.52
68.71
50.19
30.22
11.00
-6.56
-22.94
-39.20
-55.85
-72.52
-88.37
-102.99
-116.75
-130.23
-143.13
-153.51
-158.02
-153.28
-137.63
-112.12
-80.47
-47.72
-18.56
3.95
18.81
26.67
29.08
27.60
23.59
18.10
12.20
7.12
4.15
4.27
7.88
14.53
23.12
32.37
41.28
49.49
57.26
65.14
73.50
82.17
90.36
96.93
100.80
101.33
98.57
93.16
86.04
78.12
69.97
61.75
53.22
44.09
34.33
24.40
15.24
7.97
3.43
1.79
2.34
3.70
4.28
2.80
-1.25
-7.57
-15.19
-22.95
-29.87
-35.43
-39.61
-42.66
-44.83
-46.21
-46.50
-45.11
-41.35
-34.64
-24.80
-12.14
2.55
18.22
33.80
48.43
61.49
72.52
81.08
86.69
89.01
88.08
84.49
79.30
73.68
68.44
63.78
59.36
54.66
49.38
43.64
37.82
32.27
26.98
21.57
15.44
8.11
-0.61
-10.58
-21.50
-33.12
-45.46
-58.76
-73.34
-89.23
-105.85
-121.82
-135.17
-143.87
-146.44
-142.32
-131.97
-116.44
-96.98
-74.75
-50.84
-26.41
-2.83
18.47
36.44
50.78
62.06
71.43
80.12
88.90
97.91
106.77
114.96
122.07
128.02
132.97
137.16
140.74
143.77
146.27
148.35
150.31
152.60
155.63
159.64
164.53
169.92
175.39
180.66
185.74
190.84
196.11
201.42
206.25
209.87
211.50
210.64
207.13
201.04
192.51
181.58
168.10
151.74
132.14
108.96
82.09
51.78
18.77
-15.58
-49.56
-81.33
-109.27
-132.28
-149.69
-161.13
-166.43
-165.72
-159.59
-149.36
-136.99
-124.66
-114.12
-106.14
-100.31
-95.32
-89.55
-81.68
-71.06
-57.86
-42.77
-26.87
-11.33
2.69
14.21
22.59
27.60
29.43
28.54
25.56
21.13
16.00
11.08
7.42
5.98
7.29
11.12
16.55
22.27
27.20
30.78
32.99
34.04
33.94
32.38
29.01
23.72
16.97
9.71
3.03
-2.21
-5.67
-7.49
-8.05
-7.82
-7.16
-6.40
-5.87
-5.92
-6.86
-8.79
-11.56
-14.75
-17.85
-20.50
-22.73
-24.97
-27.91
-32.20
-38.17
-45.64
-54.04
-62.61
-70.62
-77.48
-82.76
-86.20
-87.73
-87.48
-85.74
-82.89
-79.26
-75.11
-70.66
-66.11
-61.76
-57.98
-55.15
-53.63
-53.76
-55.82
-60.03
-66.42
-74.71
-84.26
-94.18
-103.63
-112.04
-119.23
-125.36
-130.61
-135.06
-138.60
-141.10
-142.53
-143.13
-143.30
-143.51
-144.07
-145.02
-146.07
-146.71
-146.49
-145.23
-143.30
-141.56
-140.99
-142.12
-144.45
-146.27
-144.94
-137.81
-123.11
-100.67
-72.00
-39.78
-7.00
23.90
51.43
75.10
95.10
111.82
125.54
136.27
143.94
148.52
150.29
149.68
147.28
143.54
138.68
132.81
125.99
118.50
110.78
103.37
96.58
90.31
84.05
77.05
68.74
59.03
48.35
37.46
27.07
17.44
8.50
0.09
-7.54
-13.45
-16.13
-13.99
-6.06
7.58
25.76
46.59
68.06
88.51
106.78
122.08
133.73
140.99
143.20
140.10
132.20
120.87
107.98
95.36
84.09
74.23
65.02
55.43
44.88
33.56
22.33
12.25
4.06
-2.09
-6.60
-10.09
-13.04
-15.68
-18.06
-20.23
-22.42
-25.01
-28.33
-32.40
-36.74
-40.36
-41.98
-40.51
-35.46
-27.24
-17.18
-7.18
0.87
5.62
6.60
4.19
-0.74
-7.23
-14.62
-22.55
-30.85
-39.18
-46.96
-53.33
-57.50
-59.00
-57.92
-54.73
-49.94
-43.59
-35.03
-23.21
-7.36
12.25
33.89
54.65
71.30
81.28
83.38
77.73
65.25
46.93
23.55
-4.00
-34.14
-64.08
-89.99
-107.83
-114.61
-109.47
-93.93
-71.42
-46.15
-21.84
-0.83
16.12
29.69
41.34
52.85
65.79
81.15
99.17
119.23
140.07
160.17
178.21
193.44
205.71
215.24
222.18
226.28
226.77
222.60
212.82
196.97
175.32
148.86
119.14
87.87
56.66
26.79
-0.79
-25.31
-46.13
-62.69
-74.71
-82.23
-85.69
-85.84
-83.62
-79.98
-75.80
-71.82
-68.64
-66.65
-66.08
-66.96
-69.20
-72.71
-77.42
-83.27
-89.96
-96.84
-102.93
-107.04
-108.06
-105.27
-98.60
-88.74
-77.11
-65.64
-56.35
-50.80
-49.68
-52.58
-58.21
-64.90
-71.26
-76.64
-81.25
-85.87
-91.32
-97.89
-105.11
-111.85
-116.60
-118.01
-115.25
-108.29
-97.84
-85.10
-71.43
-58.00
-45.68
-35.06
-26.48
-20.14
-16.09
-14.07
-13.50
-13.58
-13.39
-12.18
-9.53
-5.34
0.29
7.24
15.44
24.91
35.49
46.85
58.45
69.87
80.99
92.21
104.22
117.64
132.58
148.48
164.10
178.09
189.26
196.99
201.24
202.32
200.74
196.97
191.47
184.76
177.38
169.97
163.05
156.97
151.70
146.98
142.41
137.66
132.68
127.73
123.19
119.37
116.18
113.06
109.07
103.14
94.40
82.37
67.15
49.50
30.93
13.49
-0.40
-8.61
-10.00
-4.95
4.68
16.09
26.49
34.00
37.89
38.43
36.26
31.90
25.69
17.99
9.56
1.65
-4.21
-6.72
-5.26
-0.06
7.96
17.71
28.37
39.77
52.40
66.98
83.84
102.20
120.04
134.37
142.33
142.25
134.31
120.43
103.40
85.66
68.44
51.59
34.10
14.91
-6.55
-30.18
-55.58
-82.36
-110.25
-139.06
-168.37
-197.46
-225.37
-251.10
-273.62
-292.03
-305.49
-313.27
-314.89
-310.42
-300.66
-287.17
-272.04
-257.36
-244.69
-234.82
-227.35
-220.72
-212.94
-202.31
-188.10
-170.66
-151.18
-131.17
-112.27
-95.53
-81.33
-69.53
-59.90
-52.31
-46.84
-43.60
-42.53
-43.82
-46.92
-50.40
-52.55
-52.04
-48.52
-42.36
-34.22
-24.66
-15.91
-9.67
-6.84
-7.90
-13.57
-24.58
-40.74
-60.30
-80.27
-101.17
-122.82
-143.83
-162.18
-176.92
-188.62
-198.43
-206.96
-214.10
-225.16
-242.94
-266.02
-290.10
-311.66
-330.16
-347.52
-366.55
-389.58
-424.91
-474.89
-533.17
-587.34
-625.77
-642.78
-639.50
-621.95
-550.19
-413.79
-234.86
-54.86
94.18
202.21
273.96
318.76
345.29
360.32
360.35
346.02
322.74
299.10
282.56
276.76
282.41
299.10
326.33
358.09
385.92
406.17
419.04
426.05
428.68
428.57
427.57
426.75
421.84
408.68
386.12
356.62
324.98
296.87
277.69
271.38
279.23
297.58
320.84
343.62
361.46
370.94
369.61
356.46
332.16
299.00
259.69
217.40
175.27
135.21
97.27
60.05
21.91
-17.60
-57.14
-93.83
-124.36
-146.10
-158.00
-160.68
-155.91
-145.93
-132.69
-117.53
-101.31
-84.59
-67.92
-52.01
-37.71
-25.81
-16.79
-10.71
-7.23
-5.81
-5.91
-7.12
-9.19
-12.01
-15.44
-19.24
-22.97
-26.10
-28.16
-29.01
-28.88
-28.28
-27.76
-27.63
-27.89
-28.34
-28.89
-29.85
-31.97
-36.29
-43.72
-54.60
-68.53
-84.46
-101.01
-116.81
-130.83
-142.34
-150.98
-156.53
-158.99
-158.55
-155.65
-150.96
-145.11
-138.58
-131.52
-123.78
-115.11
-105.36
-94.65
-83.37
-72.14
-61.59
-52.15
-43.97
-36.76
-29.94
-22.72
-14.35
-4.24
7.81
21.54
36.17
50.43
62.84
72.06
77.30
78.68
77.13
74.11
71.04
68.81
67.57
66.85
65.86
63.90
60.55
55.71
49.56
42.39
34.59
26.58
18.81
11.69
5.49
0.22
-4.38
-8.72
-13.28
-18.40
-24.24
-30.69
-37.43
-43.95
-49.66
-54.08
-56.90
-58.12
-58.09
-57.30
-56.21
-54.95
-53.24
-50.51
