1500454487.00
64.000000
-0.00
-0.00
-0.00
-0.00
-0.00
-0.00
-0.00
-0.00
-0.00
-0.00
0.00
0.01
0.01
-0.00
-0.03
-0.05
-0.05
0.00
0.13
0.36
0.66
1.01
1.37
1.72
2.06
2.40
2.79
3.24
3.80
4.42
5.06
5.67
6.20
6.67
7.14
7.68
8.32
9.18
10.14
11.08
11.85
12.41
12.80
13.21
13.90
15.05
16.89
19.21
21.74
24.13
26.21
28.04
29.96
32.45
35.84
40.53
46.13
52.05
57.65
62.52
66.74
70.86
75.68
81.79
89.75
98.96
108.46
117.19
124.46
130.34
135.62
141.91
148.11
156.55
167.67
181.22
195.62
207.72
213.23
207.82
188.63
155.21
110.12
56.95
-0.51
-59.66
-119.37
-179.35
-239.26
-298.12
-354.39
-406.26
-452.90
-494.06
-529.92
-560.46
-585.12
-602.52
-610.41
-605.85
-585.53
-547.14
-490.12
-416.55
-331.08
-239.97
-149.59
-64.92
10.98
76.92
132.57
177.93
213.02
238.24
254.63
264.00
268.50
270.04
269.75
267.81
263.69
256.66
246.29
232.85
217.26
200.86
184.92
170.25
156.97
144.68
132.75
120.60
107.87
94.35
79.93
64.60
48.68
32.95
18.57
6.55
-2.82
-10.26
-17.02
-24.04
-31.05
-36.47
-38.12
-34.51
-25.91
-14.52
-3.59
3.92
6.59
4.85
0.46
-4.50
-8.58
-11.37
-13.25
-14.95
-16.95
-19.25
-21.33
-22.41
-21.72
-18.84
-13.80
-7.10
0.49
8.02
14.57
19.40
22.05
22.43
20.82
17.79
14.15
10.76
8.35
7.38
7.95
9.68
11.84
13.50
13.75
11.98
8.10
2.62
-3.33
-8.32
-11.04
-10.70
-7.30
-1.66
4.75
10.27
13.57
14.04
12.00
8.56
5.30
3.59
3.99
5.93
7.94
8.31
6.02
1.37
-4.12
-8.44
-10.27
-9.72
-8.40
-8.39
-10.92
-15.60
-20.88
-25.14
-27.70
-28.94
-29.36
-28.42
-24.49
-15.59
-0.87
18.50
39.66
59.68
77.08
91.87
104.24
112.40
112.10
98.20
68.04
24.62
-22.85
-61.78
-81.54
-78.05
-55.85
-25.82
-0.49
11.45
8.10
-6.03
-22.91
-35.07
-38.08
-31.57
-18.61
-3.96
7.78
13.81
13.74
9.55
4.42
1.26
1.32
2.96
2.75
-2.41
-13.52
-29.01
-45.50
-59.24
-67.22
-67.84
-60.23
-44.58
-22.37
3.57
29.30
50.89
65.29
70.69
66.57
53.16
31.27
2.57
-29.77
-60.77
-84.42
-95.35
-90.66
-71.34
-42.51
-11.99
12.07
23.89
21.75
8.01
-11.98
-31.93
-46.61
-52.83
-49.45
-36.84
-16.24
10.38
40.13
69.05
92.54
106.43
107.99
96.88
75.58
48.54
21.37
-0.67
-13.86
-16.88
-11.15
-0.31
11.03
18.49
19.19
12.58
0.44
-13.91
-26.85
-35.71
-39.87
-40.42
-39.12
-37.27
-35.10
-31.92
-27.15
-21.06
-14.50
-9.28
-6.85
-7.16
-8.51
-7.99
-3.02
6.50
17.75
27.67
34.16
37.10
38.15
39.52
41.38
43.11
43.17
40.23
34.31
26.80
19.95
15.77
15.17
17.71
22.14
26.75
29.91
30.37
27.12
19.74
8.77
-4.09
-16.24
-24.93
-28.47
-26.86
-21.71
-15.58
-10.81
-8.70
-9.18
-11.27
-13.72
-15.78
-17.22
-18.14
-18.69
-18.94
-18.97
-19.07
-19.90
-22.24
-26.72
-33.37
-41.50
-49.76
-56.61
-60.73
-61.38
-58.58
-53.07
-46.09
-38.97
-32.53
-26.77
-20.77
-13.23
-3.35
8.54
20.69
30.55
35.87
35.70
30.97
23.95
17.29
12.84
11.08
11.30
12.25
12.96
13.13
13.04
13.18
13.83
14.94
16.22
17.35
18.18
18.73
19.02
18.98
18.42
17.16
15.16
12.52
9.45
6.17
2.88
-0.16
-2.58
-3.94
-3.93
-2.63
-0.65
0.97
1.19
-0.55
-3.98
-8.03
-11.27
-12.51
-11.26
-7.87
-3.30
1.37
5.32
8.26
10.40
12.27
14.35
16.89
19.69
22.25
23.89
24.11
22.75
20.12
16.85
13.66
11.05
9.22
8.02
7.14
6.35
5.56
4.84
4.30
3.93
3.59
3.14
2.51
1.84
1.22
0.59
-0.38
-2.05
-4.52
-7.40
-9.83
-10.92
-10.26
-8.19
-5.70
-3.93
-3.52
-4.36
-5.74
-6.85
-7.26
-7.09
-6.79
-6.81
-7.25
-7.87
-8.34
-8.53
-8.73
-9.50
-11.34
-14.23
-17.57
-20.40
-21.88
-21.81
-20.70
-19.56
-19.34
-20.51
-22.79
-25.34
-27.23
-27.86
-27.32
-26.32
-25.85
-26.59
-28.45
-30.53
-31.35
-29.35
-23.39
-12.98
1.61
19.25
37.92
54.79
66.63
70.72
65.77
52.64
34.24
14.86
-1.04
-10.03
-10.57
-3.39
8.88
22.55
33.89
40.17
40.39
35.28
26.59
16.30
5.92
-3.54
-11.22
-16.14
-17.31
-14.31
-7.89
0.06
7.24
11.94
13.73
13.39
12.31
11.52
11.08
10.15
7.63
3.00
-3.12
-9.09
-12.87
-12.97
-9.15
-2.77
3.72
7.62
7.06
1.57
-7.79
-19.11
-30.41
-40.38
-48.47
-54.62
-58.78
-60.69
-59.98
-56.56
-50.88
-43.94
-36.97
-30.93
-26.18
-22.52
-19.39
-16.24
-12.67
-8.48
-3.66
1.73
7.52
13.51
19.48
25.21
30.51
35.17
38.95
41.57
42.73
42.27
40.43
37.75
34.83
32.13
29.85
28.06
26.83
26.32
26.76
28.58
31.90
36.18
40.08
41.86
40.06
34.06
24.41
12.66
1.40
-6.89
-10.83
-10.59
-7.59
-3.60
0.16
3.49
7.06
12.41
20.64
31.63
43.88
55.46
64.97
71.93
76.22
73.85
60.92
35.99
2.05
-34.93
-68.97
-96.10
-115.04
-126.86
-133.89
-137.34
-136.48
-129.00
-112.86
-88.13
-57.92
-27.71
-3.16
12.44
20.11
24.05
28.94
37.06
47.22
55.84
59.26
55.84
46.66
35.09
24.98
18.98
17.70
20.01
23.65
26.26
26.08
22.68
16.56
9.25
2.51
-2.44
-5.33
-6.62
-7.04
-6.94
-6.29
-4.81
-2.33
0.81
3.85
5.94
6.64
6.12
5.00
3.97
3.29
2.82
2.18
1.11
-0.24
-1.37
-1.74
-1.01
0.69
2.90
5.07
6.78
7.75
7.75
6.47
3.76
-0.12
-3.97
-6.34
-6.12
-3.22
1.23
5.37
7.42
6.78
4.32
1.82
0.71
1.43
3.39
5.51
6.81
6.48
4.33
1.01
-2.30
-4.50
-4.87
-3.34
-0.56
2.07
2.34
-1.51
-9.71
-21.12
-33.98
-46.50
-56.95
-63.59
-65.15
-62.10
-56.28
-50.16
-46.19
-46.21
-50.41
-56.81
-61.82
-57.38
-39.98
-14.06
11.33
29.55
39.33
43.12
44.35
45.65
48.07
50.67
51.97
51.72
49.99
46.67
41.26
33.60
24.71
16.51
10.74
8.16
8.99
12.51
16.87
20.22
21.00
19.16
16.08
13.79
13.43
15.81
20.53
25.78
28.84
27.31
19.86
5.69
-15.34
-43.47
-75.04
-102.08
-116.28
-114.35
-99.43
-77.64
-58.36
-42.65
-30.30
-20.12
-11.08
-3.35
2.57
5.00
2.96
-3.28
-11.49
-19.09
-22.99
-20.74
-11.52
3.74
22.85
43.68
64.34
83.59
99.40
109.93
113.85
110.66
101.37
89.03
77.95
72.05
73.61
81.60
92.38
101.10
103.28
96.61
81.49
60.93
39.23
20.35
6.15
-3.83
-11.24
-17.71
-23.73
-28.45
-30.33
-27.67
-18.81
-3.22
18.41
44.06
69.88
90.74
101.29
98.12
82.25
59.23
35.57
15.72
-0.44
-17.22
-40.20
-72.61
-113.36
-155.33
-187.28
-199.45
-186.85
-150.90
-99.85
-46.53
-4.42
15.10
7.70
-23.52
-73.21
-135.27
-203.66
-272.36
-334.12
-380.44
-404.50
-400.89
-367.93
-312.17
-244.72
-175.96
-111.72
-52.07
14.85
87.09
146.71
188.13
207.97
205.31
185.59
159.38
137.55
125.59
120.27
114.20
102.93
87.00
74.51
74.92
91.01
116.74
141.20
155.00
156.56
151.71
145.91
141.09
134.88
123.61
107.56
87.90
68.04
52.30
43.90
41.90
42.46
40.75
33.24
19.14
0.12
-20.44
-38.38
-49.90
-53.60
-48.62
-37.55
-25.34
-17.25
-16.82
-24.15
-36.03
-47.43
-54.16
-54.27
-48.71
-39.92
-30.30
-21.48
-13.91
-7.77
-3.54
-1.91
-3.12
-6.51
-10.28
-12.41
-11.97
-9.66
-7.75
-9.02
-15.48
-27.41
-43.50
-61.29
-78.05
-91.64
-100.83
-105.36
-105.67
-102.56
-97.01
-90.09
-82.61
-74.99
-66.97
-57.67
-45.90
-30.73
-12.12
8.88
30.23
49.56
64.84
74.60
77.84
73.77
61.86
42.36
17.01
-10.63
-36.02
-54.98
-65.28
-67.22
-63.08
-55.76
-47.47
-39.26
-31.19
-22.95
-14.17
-4.29
7.87
24.08
45.91
73.31
103.56
131.58
151.44
158.62
151.59
132.23
104.85
74.49
45.29
19.63
-1.87
-19.52
-33.66
-44.12
-50.17
-51.06
-46.76
-38.41
-28.33
-19.47
-14.34
-14.03
-17.78
-23.48
-28.92
-32.94
-35.95
-39.79
-46.95
-59.48
-78.06
-101.46
-126.54
-148.83
-163.64
-167.24
-158.02
-136.96
-107.38
-73.73
-40.08
-8.97
18.86
43.89
66.87
87.97
106.73
122.57
135.33
145.57
154.06
161.12
166.13
167.65
164.25
155.48
142.39
127.10
111.95
98.45
86.82
76.30
65.84
54.78
43.20
31.95
22.43
16.37
15.57
21.52
34.88
55.00
79.68
105.46
128.36
144.90
153.03
152.48
144.52
131.41
115.60
99.14
83.52
69.70
58.07
48.47
39.83
29.85
15.06
-8.23
-42.27
-86.06
-134.49
-179.22
-211.23
-224.14
-216.59
-192.72
-160.32
-127.79
-101.17
-82.71
-71.15
-63.31
-55.74
-45.88
-32.28
-14.46
7.33
32.15
58.42
84.07
106.98
125.43
138.58
146.47
149.80
149.68
147.23
143.45
138.84
133.05
124.73
111.77
92.33
66.28
36.15
6.82
-16.13
-28.89
-31.43
-27.76
-24.62
-28.60
-43.40
-68.43
-99.68
-131.88
-161.08
-185.97
-207.29
-226.17
-242.69
-255.72
-263.97
-267.44
-267.86
-267.63
-267.82
-266.75
-260.44
-244.90
-218.87
-185.15
-149.46
-117.42
-91.67
-70.79
-50.70
-27.54
-0.09
29.48
57.06
79.16
94.62
104.87
112.73
120.57
129.11
137.52
144.36
148.81
151.26
152.92
154.98
157.79
160.76
162.88
163.30
161.77
158.72
155.04
151.45
148.06
144.19
138.68
130.39
118.59
102.85
83.38
61.12
37.45
13.94
-7.87
-26.58
-41.02
-50.54
-55.83
-57.77
-56.68
-52.32
-44.39
-33.41
-20.95
-9.27
-0.63
2.66
0.25
-5.75
-12.20
-16.43
-17.68
-16.84
-15.69
-16.48
-22.95
-37.82
-61.02
-89.47
-117.57
-140.11
-154.25
-161.05
-155.78
-140.03
-121.44
-107.85
-100.64
-94.42
-84.05
-68.72
-51.62
-37.08
-29.36
-29.76
-36.64
-49.13
-62.83
-74.27
-80.10
-76.70
-61.17
-34.04
1.54
42.47
79.44
106.08
120.47
124.83
123.04
118.37
111.71
103.10
93.29
83.80
77.41
75.65
78.41
84.01
89.79
92.17
88.16
76.42
57.60
35.21
13.52
-3.88
-15.25
-20.88
-22.57
-22.30
-21.06
-18.79
-14.29
-6.81
3.32
14.49
24.33
30.61
31.71
27.28
18.39
7.66
-2.16
-9.41
-14.33
-18.92
-25.74
-36.21
-49.12
-60.80
-66.95
-65.47
-57.65
-47.63
-39.88
-36.76
-37.49
-39.49
-40.79
-41.31
-42.30
-44.33
-45.86
-43.93
-35.51
-20.13
-0.38
19.57
36.34
48.92
58.56
66.52
73.38
77.95
78.20
73.14
63.56
51.57
39.69
29.70
22.35
17.69
15.29
14.11
12.67
9.23
2.44
-8.14
-21.68
-36.12
-48.86
-57.59
-60.78
-57.96
-49.68
-37.12
-21.75
-5.11
11.25
25.73
36.36
40.84
37.43
25.93
8.86
-8.89
-21.83
-26.50
-23.09
-15.31
-8.06
-4.63
-5.45
-8.02
-9.12
-7.14
-3.52
-1.80
-5.09
-13.63
-24.24
-32.41
-34.41
-29.58
-20.22
-10.12
-2.33
2.80
7.72
16.03
28.81
43.59
54.55
55.25
41.85
15.62
-17.03
-46.81
-60.88
-50.55
-16.66
28.77
68.42
88.32
83.91
61.12
32.18
10.25
-1.01
-3.79
-3.02
-2.80
-4.57
-7.29
-8.99
-8.40
-4.33
3.26
13.05
22.23
27.75
28.06
24.49
19.77
16.60
16.54
18.49
19.92
18.39
13.54
7.59
4.31
6.09
12.40
20.43
25.81
24.73
15.33
-1.48
-22.59
-43.93
-63.58
-81.90
-99.86
-119.31
-142.05
-169.40
-201.84
-239.27
-273.87
-298.07
-306.12
-293.20
-257.50
-200.86
-129.68
-54.07
14.26
66.35
99.94
117.90
127.32
134.25
141.70
149.16
155.45
160.33
166.93
180.73
201.93
233.41
274.00
317.93
355.93
379.73
383.53
366.52
331.76
271.07
188.57
97.70
14.87
-49.88
-94.75
-126.99
-155.25
-184.43
-216.60
-249.28
-280.55
-303.72
-313.80
-297.22
-248.72
-175.56
-95.51
-27.45
19.37
44.37
52.46
49.20
39.20
24.05
5.49
-12.96
-26.46
-29.82
-21.71
-5.74
10.74
20.78
19.91
9.22
-5.48
-16.81
-19.07
-10.80
5.59
25.02
42.34
53.17
55.67
50.68
41.11
30.73
22.84
19.39
20.57
25.07
29.62
31.10
27.37
18.05
4.23
-12.13
-28.81
-43.42
-53.83
-59.14
-60.03
-59.44
-59.86
-63.39
-70.87
-81.62
-93.88
-105.42
-114.03
-117.58
-114.31
-103.26
-85.47
-64.53
-46.20
-36.61
-39.60
-54.73
-76.94
-98.57
-112.28
-113.24
-100.59
-77.26
-48.08
-17.83
10.23
34.37
53.65
67.37
74.92
76.26
72.52
65.86
58.78
53.24
50.42
51.31
57.63
72.03
97.19
134.22
181.36
233.61
283.98
325.60
353.80
367.22
367.40
357.37
340.22
318.32
293.25
266.14
237.75
208.18
176.58
141.30
100.97
55.71
7.84
-39.02
-81.62
-118.56
-150.27
-177.50
-199.68
-214.41
-218.85
-211.75
-194.95
-172.97
-151.12
-133.09
-119.94
-110.72
-104.12
-99.85
-98.68
-101.41
-107.49
-114.79
-120.18
-120.78
-115.04
-103.05
-86.41
-67.57
-49.01
-32.44
-18.36
-6.26
4.61
14.23
21.52
24.46
21.06
10.33
-6.88
-27.88
-48.80
-65.75
-76.01
-78.72
-74.92
-66.78
-56.69
-46.48
-37.18
-29.12
-22.31
-16.71
-12.33
-9.06
-6.54
-4.30
-1.96
0.53
2.80
4.27
4.40
2.90
-0.07
-3.82
-7.19
-8.95
-8.33
-5.55
-1.77
1.46
3.13
3.36
3.33
4.51
7.56
11.87
15.81
17.79
17.24
15.01
12.80
12.01
12.81
14.06
14.05
11.57
6.76
0.92
-4.15
-7.11
-7.68
-6.46
-4.44
-2.39
-0.72
0.34
0.54
-0.40
-2.44
-5.15
-7.68
-9.24
-9.52
-8.70
-7.17
-5.05
-1.98
2.55
8.65
15.73
22.59
28.10
31.77
34.00
35.73
37.74
40.06
41.98
42.39
40.40
35.72
28.71
20.21
11.21
2.66
-4.69
-10.30
-13.94
-15.77
-16.28
-16.14
-15.90
-15.79
-15.60
-14.80
-12.88
-9.60
-5.28
-0.64
3.31
5.70
6.10
4.64
1.97
-1.01
-3.47
-5.02
-5.71
-5.99
-6.45
-7.54
-9.32
-11.61
-13.98
-16.07
-17.70
-18.89
-19.69
-20.09
-20.03
-19.23
-17.37
-14.23
-9.76
-4.32
1.35
6.12
8.83
8.80
6.39
3.11
1.08
2.10
6.66
13.68
20.76
25.05
24.06
16.43
2.18
-17.06
-38.10
-56.61
-68.08
-69.27
-59.45
-40.97
-18.60
2.18
17.22
25.04
26.68
24.92
22.69
22.01
23.48
26.45
29.77
32.51
34.27
35.08
34.85
32.88
27.77
18.00
2.85
-16.74
-37.82
-56.07
-67.02
-67.57
-57.02
-37.25
-12.09
14.05
37.33
55.46
67.94
75.55
79.62
81.27
81.09
79.31
76.22
72.42
68.60
65.02
61.18
56.02
48.72
39.57
30.07
22.33
17.77
16.04
15.01
11.92
5.00
-5.60
-17.82
-29.03
-37.32
-41.91
-42.84
-40.38
-34.86
-26.94
-18.32
-11.67
-9.95
-15.16
-27.08
-43.13
-59.57
-73.24
-82.77
-88.84
-93.03
-96.68
-100.19
-102.56
-102.16
-97.95
-90.13
-80.06
-69.62
-60.04
-52.15
-47.16
-45.59
-47.50
-52.58
-59.69
-66.36
-69.24
-64.54
-51.12
-33.07
-16.31
-6.21
-5.54
-12.45
-20.60
-21.64
-7.26
25.71
72.23
124.89
177.11
224.06
263.54
295.13
318.87
336.34
348.00
351.07
345.76
335.39
323.26
311.04
297.82
268.42
215.53
157.72
103.08
52.13
8.63
-25.48
-51.27
-72.25
-92.46
-112.62
-132.51
-154.85
-180.95
-210.63
-243.10
-275.14
-300.45
-311.42
-301.23
-269.36
-224.89
-179.97
-144.97
-125.75
-121.90
-128.48
-139.53
-150.16
-158.63
-166.21
-172.19
-172.81
-163.57
-141.83
-109.02
-70.63
-33.40
-2.81
18.57
32.64
43.84
55.74
68.83
80.21
85.46
81.56
68.57
49.75
30.35
14.94
5.18
-0.53
-5.42
-12.01
-20.26
-27.43
-29.46
-23.07
-7.30
16.13
43.38
69.62
90.04
100.89
100.42
89.74
72.73
54.93
41.45
34.96
34.81
37.89
40.81
42.05
42.63
44.95
50.46
57.70
62.29
59.22
46.06
25.13
2.97
-12.77
-17.21
-10.66
1.92
13.83
20.23
19.91
14.94
8.47
2.56
-2.57
-7.68
-13.04
-17.52
-18.96
-15.37
-6.16
7.32
22.25
35.40
44.01
46.24
41.49
30.43
15.07
-1.25
-14.43
-20.79
-18.42
-8.17
6.68
21.86
34.02
42.14
47.46
52.30
58.33
65.52
72.23
76.27
76.57
73.88
70.22
67.50
66.25
65.27
62.40
55.88
45.31
32.49
20.68
13.01
10.67
12.28
14.73
14.79
10.53
1.44
-11.07
-24.66
-37.51
-49.55
-62.17
-76.98
-94.24
-112.28
-128.82
-140.80
-145.75
-143.35
-136.22
-128.65
-124.41
-125.17
-130.43
-139.84
-152.26
-165.88
-178.36
-187.51
-191.23
-187.62
-175.57
-148.54
-108.83
-66.71
-33.05
-11.52
0.64
8.81
16.42
24.46
33.04
41.54
51.70
65.74
87.42
119.00
159.53
204.55
247.30
280.61
298.37
298.74
284.74
262.55
237.81
213.76
191.13
169.39
148.10
127.25
108.01
92.16
80.95
73.49
67.31
59.64
48.50
32.70
11.00
-17.76
-53.95
-96.67
-144.08
-193.17
-239.67
-278.61
-305.14
-315.26
-306.14
-276.37
-226.80
-162.12
-90.47
-21.44
36.72
79.26
106.08
117.35
115.31
105.78
95.18
86.79
80.24
73.70
65.87
56.76
48.17
40.16
32.26
23.22
11.89
-1.69
-16.11
-29.71
-41.69
-50.53
-57.28
-64.67
-75.70
-91.26
-109.01
-124.35
-132.85
-131.67
-119.72
-97.82
-67.46
-30.22
12.40
58.15
102.98
138.77
154.61
145.41
116.41
79.55
45.65
20.05
2.78
-9.09
-18.50
-26.45
-31.58
-32.78
-30.66
-27.59
-26.45
-29.27
-36.77
-48.36
-63.35
-78.11
-88.56
-91.06
-82.95
-63.03
-32.53
4.41
41.24
71.28
90.40
98.11
97.10
91.95
86.72
82.87
78.35
68.91
50.79
22.25
-12.85
-47.32
-73.51
-86.25
-84.30
-70.05
-48.06
-23.78
-2.69
9.93
9.67
-5.21
-31.41
-59.85
-78.23
-76.26
-51.42
-11.34
29.32
55.70
60.00
45.51
24.05
8.54
5.44
11.55
17.44
15.11
3.82
-9.77
-16.14
-9.95
5.93
22.43
30.42
27.06
18.30
15.13
26.56
52.09
82.26
104.13
110.47
102.35
85.36
65.24
48.53
34.82
23.21
13.38
5.45
-0.43
-4.83
-9.29
-14.51
-20.40
-26.61
-31.88
-34.79
-34.35
-30.26
-23.17
-14.37
-5.08
3.69
10.68
15.12
16.60
15.28
12.03
8.11
4.75
2.87
2.80
4.05
6.10
8.53
11.19
14.24
17.83
21.76
25.57
28.68
30.49
30.96
30.49
29.85
29.98
31.54
34.54
38.19
41.08
41.75
39.40
34.01
26.05
16.06
4.41
-8.38
-21.30
-32.94
-42.27
-49.73
-57.66
-69.41
-87.03
-109.02
-129.69
-140.80
-135.07
-109.59
-67.35
-16.21
34.16
75.35
102.12
112.91
109.25
94.93
75.00
54.43
36.67
22.55
10.28
-3.55
-21.97
-45.87
-73.49
-101.14
-124.80
-141.34
-148.83
-146.78
-136.41
-120.68
-103.72
-89.52
-80.36
-75.46
-71.54
-63.85
-48.52
-24.91
3.67
31.54
53.14
65.03
66.73
59.17
44.04
22.96
-3.23
-33.71
-65.97
-94.67
-112.61
-112.94
-93.74
-58.34
-14.20
29.02
62.50
80.96
83.58
72.36
50.38
18.61
-22.11
-65.38
-99.54
-114.29
-107.70
-85.10
-59.08
-31.62
-4.12
21.87
45.16
64.23
76.57
81.03
78.96
73.31
67.70
62.93
58.26
52.49
44.48
33.89
21.78
10.42
2.04
-1.91
-2.62
-2.12
-2.00
-3.11
-5.67
-9.69
-15.27
-22.91
-32.71
-44.52
-56.47
-65.00
-66.42
-58.96
-43.93
-25.43
-8.78
1.92
5.16
2.82
-0.81
-1.17
4.53
16.44
32.72
50.70
68.23
83.93
97.03
107.02
113.29
115.30
113.00
107.46
100.69
95.01
91.72
90.43
89.55
86.86
80.55
69.82
55.68
40.51
27.48
18.72
14.67
14.89
18.37
23.79
29.60
34.81
39.16
43.23
46.92
49.34
50.07
49.37
47.78
45.69
44.20
44.94
49.73
58.07
66.57
71.14
68.05
54.69
29.78
-5.36
-51.03
-100.21
-143.28
-179.12
-211.82
-243.23
-266.05
-272.97
-258.58
-222.11
-167.54
-103.28
-39.06
18.35
65.59
100.64
120.48
122.19
104.85
71.93
30.52
-10.42
-42.37
-60.52
-65.46
-62.40
-57.31
-53.86
-52.31
-51.27
-49.35
-45.54
-39.30
-30.46
-19.32
-6.07
9.08
25.65
42.52
58.17
71.51
81.88
88.73
91.55
90.12
84.82
76.64
66.66
55.63
43.66
30.51
16.01
0.69
-14.09
-26.52
-35.10
-39.20
-39.35
-36.91
-33.42
-30.12
-27.63
-26.03
-25.09
-24.56
-24.18
-23.82
-23.39
-22.82
-22.09
-21.11
-19.77
-17.93
-15.41
-12.27
-8.79
-5.44
-2.68
-0.75
0.47
1.35
2.34
3.78
5.75
8.01
10.17
11.88
12.99
13.62
14.02
14.43
14.83
14.95
14.50
13.41
12.04
11.05
11.07
12.25
14.18
16.04
17.02
16.71
15.14
12.71
9.87
6.97
4.22
1.74
-0.43
-2.32
-4.00
-5.54
-6.91
-7.96
-8.40
-8.06
-7.03
-5.72
-4.72
-4.49
-5.14
-6.43
-7.94
-9.35
-10.51
-11.46
-12.27
-12.93
-13.39
-13.58
-13.57
-13.51
-13.60
-13.91
-14.34
-14.70
-14.76
-14.44
-13.76
-12.75
-11.34
-9.38
-6.77
-3.65
-0.43
2.33
4.18
5.01
5.11
5.05
5.30
6.08
7.22
8.37
9.24
9.69
9.81
9.73
9.49
9.07
8.40
7.46
6.32
5.05
3.71
2.32
0.95
-0.26
-1.12
-1.45
-1.23
-0.59
0.22
0.99
1.67
2.41
3.42
4.85
6.61
8.46
10.05
11.10
11.54
11.49
11.15
10.70
10.22
9.69
9.04
8.28
7.50
6.85
6.48
6.41
6.57
6.83
7.05
7.15
7.05
6.72
6.13
5.28
4.22
3.09
2.06
1.30
0.86
0.70
0.65
0.50
0.15
-0.39
-1.02
-1.58
-1.96
-2.08
-1.92
-1.46
-0.68
0.42
1.73
3.09
4.23
4.93
5.06
4.65
3.89
3.05
2.33
1.86
1.61
1.52
1.52
1.59
1.73
1.93
2.13
2.20
1.97
1.30
0.18
-1.28
-2.82
-4.11
-4.92
-5.13
-4.84
-4.28
-3.72
-3.37
-3.33
-3.53
-3.85
-4.16
-4.36
-4.40
-4.28
-4.01
-3.66
-3.35
-3.18
-3.18
-3.28
-3.30
-3.11
-2.64
-2.00
-1.38
-0.88
-0.50
-0.09
0.50
1.26
2.00
2.46
2.47
2.09
1.58
1.27
1.33
1.69
2.13
2.40
2.43
2.31
2.23
2.25
2.30
2.21
1.85
1.27
0.67
0.27
0.13
0.13
-0.01
-0.48
-1.29
-2.21
-2.92
-3.21
-3.08
-2.76
-2.58
-2.77
-3.39
-4.32
-5.41
-6.50
-7.46
-8.13
-8.19
-7.22
-4.80
-0.73
4.80
11.18
17.57
23.12
27.26
29.83
31.01
31.26
31.10
30.95
31.07
31.58
32.43
33.53
34.79
36.17
37.76
39.64
41.85
44.29
46.79
49.26
51.79
54.66
58.09
61.90
65.38
67.45
67.12
63.83
57.70
49.27
39.17
27.87
15.67
2.96
-9.54
-20.79
-29.72
-35.82
-39.57
-42.48
-46.54
-53.37
-63.36
-75.36
-87.19
-96.52
-101.92
-103.29
-101.56
-97.82
-92.45
-84.96
-74.40
-60.30
-43.17
-24.50
-6.25
9.64
21.52
27.97
27.94
20.92
7.37
-11.06
-31.86
-52.34
-70.46
-85.10
-95.91
-102.73
-105.30
-103.38
-97.21
-87.88
-77.27
-67.59
-60.76
-57.94
-59.50
-65.28
-74.93
-87.68
-101.86
-114.40
-120.80
-116.17
-97.19
-64.21
-22.33
19.53
51.32
65.55
60.06
38.70
9.42
-18.87
-39.05
-47.26
-42.81
-27.34
-4.05
22.87
48.84
69.90
83.82
90.84
93.37
94.73
97.60
103.02
110.55
119.10
127.82
136.31
144.34
151.35
156.29
158.19
156.79
152.70
147.29
142.05
138.01
135.32
132.91
128.54
118.99
100.73
71.41
30.97
-17.64
-69.10
-117.18
-156.62
-184.32
-199.55
-203.28
-197.22
-183.22
-163.24
-139.51
-114.75
-91.83
-73.32
-60.83
-54.54
-53.04
-53.57
-52.85
-48.14
-38.23
-24.01
-7.85
7.57
20.59
31.28
40.90
50.94
61.89
72.85
82.10
88.17
90.65
90.48
89.49
89.54
91.80
96.33
102.20
107.83
111.64
112.51
110.15
105.16
98.75
92.46
87.78
85.94
87.61
92.64
99.71
106.11
108.06
101.94
85.99
61.63
33.42
7.28
-12.18
-23.88
-30.61
-37.37
-48.55
-65.62
-86.57
-107.34
-123.99
-134.46
-138.52
-136.85
-129.78
-117.31
-99.95
-79.89
-60.93
-46.94
-39.72
-37.54
-35.59
-28.40
-13.21
7.87
28.08
38.82
33.35
9.84
-27.76
-71.20
-110.58
-137.13
-145.32
-133.78
-105.16
-65.37
-22.33
15.53
41.00
49.75
41.56
20.55
-6.07
-30.59
-47.86
-57.61
-64.68
-76.86
-101.02
-139.25
-186.96
-234.24
-269.51
-284.02
-274.72
-244.46
-199.75
-147.47
-92.46
-36.40
21.35
81.79
144.49
206.59
263.29
309.07
339.49
352.33
348.28
330.34
302.65
269.33
233.70
198.35
165.32
135.88
109.67
84.61
57.42
25.13
-13.22
-55.31
-95.82
-128.14
-146.70
-149.41
-137.35
-114.09
-84.89
-55.95
-33.02
-19.66
-16.14
-18.94
-22.91
-21.76
-10.76
10.46
37.58
64.33
86.31
102.67
115.44
125.08
131.30
132.82
127.35
112.65
88.32
56.39
19.37
-21.85
-70.76
-128.91
-192.31
-251.75
-295.97
-315.81
-307.65
-275.60
-214.36
-135.13
-59.76
-5.01
27.72
46.49
59.10
68.95
75.84
77.97
71.60
55.84
32.84
5.83
-22.60
-50.20
-71.82
-81.60
-75.39
-54.93
-25.30
6.92
35.25
54.54
62.52
60.53
52.13
41.25
30.01
20.19
14.09
14.32
22.69
38.91
59.78
78.83
88.45
82.99
62.73
34.35
7.50
-10.13
-16.59
-15.54
-12.32
-11.19
-11.78
-9.09
1.37
18.95
37.98
51.20
53.98
45.78
29.64
10.19
-8.59
-24.39
-37.12
-46.51
-52.14
-53.79
-51.89
-47.70
-43.08
-40.09
-40.63
-45.78
-55.26
-67.71
-79.90
-88.66
-91.05
-84.79
-68.78
-44.00
-13.70
17.31
44.30
64.51
77.34
84.07
86.11
84.28
78.26
67.57
52.78
36.22
21.52
11.03
4.73
-0.20
-6.36
-15.35
-26.98
-41.17
-55.67
-66.38
-70.27
-67.08
-60.05
-52.01
-44.91
-39.27
-34.49
-29.27
-20.27
-4.67
18.23
45.02
72.41
97.50
118.71
135.09
138.94
125.59
95.30
63.08
33.67
9.65
-9.74
-22.94
-29.84
-32.48
-33.03
-33.49
-34.32
-35.52
-34.09
-26.87
-12.51
6.86
26.95
44.20
56.15
61.88
60.31
52.30
39.06
21.81
1.45
-20.36
-39.94
-52.76
-55.01
-46.13
-27.91
-4.37
19.73
40.25
55.04
64.36
69.65
72.21
72.14
69.27
63.56
55.49
45.90
35.73
25.88
17.01
9.53
3.46
-1.31
-5.05
-8.30
-11.91
-16.68
-23.00
-30.60
-38.51
-45.37
-49.95
-51.53
-50.11
-46.24
-40.66
-33.99
-26.63
-18.88
-11.10
-3.72
2.87
8.57
13.69
18.81
24.36
30.40
36.53
42.14
46.74
50.31
53.26
56.23
59.75
63.93
68.48
72.79
76.31
78.84
80.63
82.20
84.08
86.40
88.53
89.02
86.04
77.99
64.05
44.36
19.84
-8.19
-37.93
-67.07
-92.59
-111.30
-120.72
-119.95
-109.86
-92.75
-71.06
-46.66
-20.91
4.37
26.33
41.58
47.72
45.17
37.06
27.87
20.85
16.39
12.38
6.36
-2.34
-11.69
-18.10
-19.32
-15.75
-10.54
-8.28
-12.34
-22.86
-36.42
-47.90
-53.06
-51.52
-45.40
-37.59
-30.63
-26.64
-27.82
-36.68
-55.26
-83.27
-117.93
-150.32
-167.45
-159.05
-124.37
-74.71
-28.92
-5.03
-11.68
-47.33
-97.44
-140.71
-159.55
-148.54
-116.28
-79.97
-57.54
-60.40
-94.55
-154.76
-226.66
-294.07
-345.44
-376.12
-386.05
-376.69
-322.61
-220.65
-95.22
16.30
87.41
111.48
97.01
62.46
25.83
1.03
-10.21
-12.21
-8.08
-1.75
4.24
9.86
17.41
29.26
46.57
65.69
84.51
104.71
129.36
159.32
191.44
220.09
240.48
251.92
256.10
258.39
265.08
279.40
299.35
318.87
331.03
331.17
318.75
295.97
267.84
240.68
219.81
207.74
203.25
201.74
196.48
180.82
149.81
102.28
41.79
-23.96
-84.76
-130.35
-153.35
-151.67
-129.30
-95.20
-60.27
-33.61
-19.57
-17.00
-20.83
-25.07
-25.97
-23.82
-22.49
-26.88
-39.58
-58.31
-76.17
-84.81
-79.37
-61.70
-40.33
-26.56
-28.79
-47.96
-76.70
-103.02
-116.14
-111.52
-91.93
-65.15
-39.91
-22.50
-15.49
-18.33
-28.78
-44.06
-61.64
-78.22
-89.37
-90.30
-77.66
-51.12
-13.99
27.53
66.41
96.16
114.65
124.51
130.78
137.34
144.96
151.91
156.09
156.60
151.27
139.91
124.42
107.33
89.97
72.79
56.36
41.57
27.93
8.27
-23.10
-66.24
-115.07
-161.40
-198.96
-225.79
-244.47
-261.97
-292.60
-344.75
-416.11
-495.36
-569.03
-626.17
-659.90
-666.77
-609.91
-480.49
-305.13
-129.45
14.52
118.42
188.14
232.30
260.51
279.20
286.36
284.33
280.78
284.94
301.02
327.25
352.21
366.46
363.23
327.48
258.17
168.89
80.14
7.70
-41.28
-69.54
-79.75
-73.98
-58.60
-39.72
-22.80
-10.40
-6.10
-11.47
-25.61
-43.03
-57.72
-67.09
-69.58
-65.10
-54.66
-39.62
-20.36
0.23
20.47
39.64
57.18
73.20
86.80
95.88
97.85
93.31
78.70
53.41
20.45
-13.74
-40.63
-52.69
-45.90
-19.92
21.28
68.44
111.91
144.19
161.77
165.43
158.91
140.70
114.01
84.51
56.90
34.12
16.93
4.88
-3.16
-8.65
-13.14
-17.02
-20.82
-25.79
-32.96
-42.70
-54.65
-67.67
-80.12
-90.19
-95.81
-96.49
-93.52
-89.12
-85.07
-82.09
-79.98
-78.51
-77.99
-78.75
-81.44
-84.37
-84.42
-77.30
-59.70
-31.37
4.05
40.12
69.44
88.19
96.90
98.56
96.15
90.61
81.00
66.18
47.17
28.00
14.13
9.23
12.79
20.40
25.62
23.14
11.69
-5.35
-21.76
-31.46
-31.28
-22.14
-8.02
5.98
15.62
18.82
15.90
9.16
1.40
-5.41
-10.85
-15.52
-20.06
-24.34
-27.09
-26.82
-22.70
-15.56
-7.48
-0.97
2.22
1.49
-2.51
-8.63
-15.29
-20.45
-22.30
-20.39
-16.63
-14.77
-18.25
-27.32
-37.76
-42.47
-35.76
-17.22
7.54
29.89
43.15
45.98
42.33
37.40
34.49
33.23
31.14
26.32
19.49
13.30
10.42
11.24
13.34
13.33
9.12
1.15
-7.81
-14.55
-17.36
-16.92
-15.59
-15.75
-18.01
-20.82
-21.56
-18.31
-11.32
-3.09
2.90
4.07
0.10
-6.87
-13.46
-16.67
-15.10
-9.28
-1.14
7.06
13.61
17.58
19.01
18.25
15.81
12.23
8.21
4.75
2.98
3.78
7.27
12.92
19.65
26.43
32.64
38.11
42.97
47.20
50.57
51.48
49.01
43.09
35.04
26.80
20.07
15.57
12.60
9.81
6.14
1.88
-1.73
-3.32
-3.10
-3.21
-6.74
-16.79
-33.75
-55.14
-76.27
-92.66
-101.86
-104.32
-102.38
-98.29
-94.41
-92.96
-95.06
-99.37
-104.45
-105.13
-98.00
-83.28
-62.91
-41.08
-22.97
-13.16
-13.86
-24.49
-42.05
-62.05
-78.64
-83.13
-68.60
-33.41
17.98
76.93
134.03
182.28
219.77
237.84
234.70
216.54
192.87
170.51
151.92
137.14
124.95
119.10
116.77
117.27
120.17
123.84
126.24
126.16
123.92
115.41
100.69
79.48
50.62
16.16
-19.08
-47.79
-63.04
-61.23
-50.76
-37.60
-27.20
-21.54
-21.09
-26.60
-38.07
-55.92
-79.72
-112.71
-153.95
-200.78
-247.70
-289.01
-320.53
-339.07
-342.06
-308.15
-233.46
-132.42
-31.24
52.01
113.41
157.74
191.35
216.90
235.27
236.19
214.36
170.66
113.78
55.37
4.75
-34.34
-64.92
-84.10
-107.66
-139.79
-181.21
-226.66
-266.77
-291.16
-291.51
-264.69
-213.31
-149.39
-85.25
-30.97
10.03
40.16
63.96
84.17
100.14
110.79
114.39
114.00
115.32
124.73
145.34
174.55
205.44
223.29
220.38
201.02
178.95
164.54
159.37
158.55
155.83
147.65
134.40
120.10
109.83
102.29
93.44
80.99
66.72
54.77
48.50
48.10
51.33
54.15
51.56
39.36
17.31
-10.22
-38.54
-65.32
-90.37
-113.14
-131.73
-144.87
-154.70
-163.18
-169.06
-170.83
-167.55
-158.93
-145.27
-128.20
-99.84
-62.80
-25.83
5.30
29.39
48.88
66.64
80.20
90.27
95.38
90.05
71.45
43.82
10.08
-24.76
-58.14
-86.91
-107.50
-106.58
-83.17
-66.71
-69.15
-86.64
-116.89
-155.52
-194.97
-227.54
-250.46
-268.38
-286.51
-302.93
-314.18
-316.46
-306.15
-280.03
-237.59
-183.15
-125.24
-70.59
-18.69
31.97
85.06
135.25
175.00
204.72
226.62
240.75
243.19
236.34
224.20
210.63
198.01
188.04
181.01
175.03
167.74
158.35
148.81
139.88
130.35
117.66
100.70
80.32
58.30
36.96
18.57
5.37
-2.27
-5.49
-6.13
-5.29
-3.36
-0.79
2.29
6.22
11.91
19.72
29.08
38.34
45.70
49.83
50.11
46.91
41.29
34.54
27.28
19.55
11.20
2.68
-4.83
-10.11
-12.61
-12.89
-12.36
-12.43
-13.56
-14.82
-14.23
-9.81
-0.91
11.17
23.41
32.34
35.31
31.54
22.05
9.09
-4.93
-18.44
-30.89
-42.32
-52.64
-61.38
-67.88
-72.03
-74.04
-74.44
-73.84
-72.64
-70.84
-68.17
-64.61
-60.70
-57.87
-56.79
-57.02
-57.27
-56.12
-52.73
-46.98
-39.83
-32.88
-28.57
-27.73
-29.31
-30.92
-29.78
-23.51
-10.02
11.53
41.45
74.68
103.79
123.23
132.21
133.64
131.64
130.47
132.26
139.35
146.43
147.65
138.54
117.03
83.71
41.39
-4.98
-50.57
-86.57
-108.35
-116.57
-115.67
-110.35
-103.29
-98.66
-94.58
-89.72
-83.25
-75.30
-64.85
-49.95
-28.97
-0.20
32.98
65.22
90.03
102.25
98.45
78.53
45.71
5.61
-35.19
-71.08
-97.64
-113.55
-120.12
-120.73
-118.49
-114.60
-108.08
-96.77
-79.18
-54.90
-25.56
5.97
36.31
62.74
83.75
98.97
108.84
113.94
114.94
111.97
104.80
93.13
77.42
59.38
41.96
28.39
20.80
19.14
20.76
21.41
17.20
6.60
-8.50
-23.44
-32.81
-32.89
-23.27
-6.98
10.60
23.51
26.75
17.39
-4.86
-37.44
-75.10
-110.66
-136.57
-146.98
-139.80
-117.66
-87.20
-56.85
-33.80
-21.53
-18.90
-21.51
-24.30
-24.36
-22.12
-20.37
-21.81
-26.53
-31.34
-31.39
-23.25
-7.47
11.21
26.14
32.12
28.04
17.03
4.46
-4.98
-9.42
-10.01
-9.48
-10.32
-13.54
-18.53
-23.80
-27.93
-30.16
-30.41
-28.98
-26.21
-22.24
-17.07
-10.70
-3.25
4.81
12.72
19.61
24.81
28.18
30.24
32.05
34.73
38.82
43.97
48.98
52.38
53.15
51.21
47.36
42.68
37.95
33.24
27.98
21.52
13.75
5.49
-1.51
-4.96
-2.80
5.91
20.54
38.68
56.90
71.66
80.39
82.07
77.03
66.27
50.81
31.54
9.80
-11.98
-30.32
-41.76
-44.31
-38.60
-27.67
-15.64
-5.85
0.24
3.06
3.88
3.73
2.97
1.51
-0.45
-2.02
-1.88
1.10
7.25
15.84
25.32
33.79
39.43
40.93
37.80
30.60
20.91
10.96
2.88
-2.04
-3.99
-4.44
-5.51
-9.09
-16.04
-26.00
-37.95
-50.77
-63.67
-75.97
-86.44
-93.56
-96.12
-94.09
-88.94
-82.94
-77.66
-72.58
-64.99
-51.31
-29.75
-2.17
26.16
48.95
61.83
64.15
58.72
49.61
40.01
30.44
19.27
4.84
-12.44
-29.27
-40.46
-41.36
-30.16
-8.17
18.99
43.11
56.89
57.31
46.59
30.30
14.14
1.35
-5.60
-7.15
-5.90
-4.85
-5.78
-9.22
-15.03
-21.90
-26.35
-19.15
6.90
52.17
109.36
167.29
215.95
249.94
270.15
282.44
298.31
323.72
355.20
382.81
397.26
394.82
377.09
349.03
287.84
190.12
75.75
-25.30
-96.20
-138.83
-164.33
-184.23
-205.04
-227.02
-241.35
-241.08
-226.04
-202.48
-179.52
-161.64
-149.91
-142.40
-135.52
-122.52
-102.07
-79.19
-61.74
-54.85
-58.17
-67.17
-75.14
-75.76
-63.22
-38.27
-6.91
23.43
48.15
66.12
77.22
81.18
76.98
64.37
40.83
4.39
-44.00
-100.21
-159.52
-218.89
-275.97
-326.90
-349.80
-326.83
-257.95
-163.39
-69.51
4.57
51.44
74.29
82.53
85.74
86.67
82.88
71.34
52.52
30.40
10.11
-5.00
-13.85
-17.59
-20.03
-24.12
-29.60
-33.16
-31.50
-23.54
-10.58
5.05
21.40
36.47
49.46
60.08
69.06
76.45
81.18
81.69
77.46
69.77
61.02
54.16
51.50
53.63
58.67
63.14
63.64
58.45
48.13
34.58
20.14
6.71
-4.33
-12.03
-15.46
-13.91
-7.66
1.01
7.58
6.37
-7.15
-33.63
-68.48
-102.60
-125.86
-131.25
-118.01
-91.78
-61.93
-37.29
-22.77
-18.20
-19.38
-21.45
-21.66
-20.18
-18.99
-20.01
-23.64
-28.79
-33.48
-35.23
-32.62
-25.76
-15.82
-3.95
9.74
26.17
45.05
64.42
82.50
97.62
108.38
114.30
116.40
116.93
117.80
121.20
122.96
118.09
102.37
74.08
34.83
-10.95
-57.68
-96.10
-120.61
-132.35
-135.75
-135.30
-132.78
-126.78
-114.54
-94.65
-70.53
-45.74
-25.39
-12.61
-7.48
-7.35
-8.59
-8.36
-5.67
-1.09
4.19
9.14
14.49
21.23
29.76
39.11
47.28
52.19
52.72
49.00
41.82
32.79
23.65
15.99
10.98
9.24
10.58
14.06
18.23
21.42
22.75
22.27
20.74
18.97
17.43
16.13
14.89
13.58
12.06
10.29
8.22
5.87
3.45
1.53
0.92
2.39
6.33
12.41
19.63
26.48
31.36
32.87
30.21
23.28
12.83
0.13
-13.29
-26.04
-37.23
-46.48
-53.76
-59.26
-63.28
-66.31
-69.06
-72.39
-76.94
-82.68
-88.75
-93.71
-96.13
-95.19
-90.97
-84.12
-75.44
-65.46
-54.46
-42.69
-30.73
-19.38
-9.21
-0.14
8.75
18.77
30.84
44.87
59.61
73.21
84.12
91.67
96.23
98.71
99.76
99.36
96.94
91.94
84.52
75.90
68.07
63.05
62.12
65.29
71.40
78.58
84.91
88.90
89.69
86.93
80.53
70.48
56.83
39.77
19.73
-2.54
-25.87
-48.74
-69.49
-86.46
-98.38
-104.57
-105.22
-101.43
-95.00
-87.99
-82.09
-78.14
-75.91
-74.30
-71.72
-66.70
-58.14
-45.54
-29.03
-9.39
11.82
32.31
49.46
61.01
65.89
64.64
59.11
51.57
43.69
35.99
28.13
19.73
11.20
3.87
-0.56
-1.03
2.21
7.67
13.31
17.44
19.23
18.56
15.50
9.96
1.77
-8.92
-21.33
-33.82
-44.28
-50.69
-51.96
-48.55
-42.55
-37.14
-35.42
-38.95
-46.75
-55.32
-59.92
-56.70
-44.50
-25.20
-2.58
19.61
39.17
55.74
69.83
81.45
89.43
91.52
85.98
72.94
54.48
33.79
13.82
-3.67
-18.03
-29.26
-38.07
-45.05
-50.32
-54.02
-56.31
-57.45
-57.72
-56.94
-54.71
-51.79
-49.31
-48.01
-48.32
-49.74
-51.48
-52.72
-52.45
-49.60
-44.41
-37.17
-27.49
-14.75
2.34
24.63
49.51
72.52
96.49
123.21
149.30
171.74
187.76
196.12
196.20
188.01
172.38
151.00
124.64
94.35
61.79
25.24
-11.90
-43.68
-65.20
-75.42
-76.65
-75.32
-75.50
-78.72
-84.78
-91.53
-97.06
-98.69
-95.70
-89.04
-81.64
-76.69
-76.17
-79.71
-83.88
-84.13
-76.73
-60.32
-36.05
-7.37
21.56
46.87
65.53
75.66
75.93
65.96
47.06
22.92
-1.16
-19.99
-30.76
-34.08
-33.21
-32.32
-34.26
-39.53
-46.49
-53.04
-57.93
-61.46
-64.63
-68.02
-71.10
-72.49
-70.80
-65.22
-55.74
-42.69
-26.41
-7.14
14.80
38.62
62.93
85.95
105.93
121.47
131.65
135.94
134.13
126.41
113.54
96.90
78.27
59.43
41.61
25.24
10.05
-4.41
-18.13
-30.66
-41.33
-49.83
-56.55
-62.47
-68.78
-76.26
-84.89
-93.70
-101.28
-106.29
-107.89
-106.03
-101.49
-96.08
-92.50
-93.86
-102.36
-118.33
-139.37
-160.61
-176.18
-181.46
-175.02
-158.99
-137.77
-115.01
-92.73
-71.36
-50.99
-32.51
-17.84
-9.07
-6.32
-6.98
-4.79
6.24
28.97
62.06
101.41
142.50
181.77
217.77
249.92
279.73
307.42
331.36
348.84
358.01
358.92
352.49
340.88
325.66
310.65
298.33
289.05
281.34
273.60
265.28
256.08
246.90
219.52
165.43
89.62
8.40
-62.44
-115.61
-147.81
-166.96
-178.76
-186.58
-189.23
-185.58
-176.54
-164.58
-152.43
-141.70
-133.41
-126.93
-121.75
-115.44
-106.45
-94.85
-82.04
-69.54
-57.87
-47.26
-37.02
-27.32
-17.95
-9.91
-5.17
-5.59
-11.39
-20.27
-28.53
-32.00
-28.48
-18.00
-3.40
10.76
19.94
21.35
14.69
1.64
-14.81
-31.69
-46.39
-57.25
-63.54
-65.40
-63.61
-59.23
-53.36
-46.67
-39.41
-31.52
-23.06
-14.56
-7.24
-2.77
-2.66
-7.46
-16.20
-26.45
-34.98
-38.87
-36.72
-29.11
-18.30
-7.17
2.05
8.68
13.60
18.48
24.78
32.85
41.78
49.61
54.00
52.93
45.27
30.99
11.25
-11.88
-35.98
-58.94
-79.57
-97.57
-112.92
-124.91
-131.71
-130.92
-121.08
-103.12
-80.82
-59.65
-44.34
-36.79
-35.31
-35.71
-33.53
-26.35
-14.64
-1.15
10.84
19.15
23.51
25.20
26.11
27.70
30.38
33.51
35.85
36.32
34.60
31.40
28.06
26.02
26.05
27.91
30.54
32.66
33.40
32.51
29.99
25.62
18.63
8.10
-6.27
-23.35
-40.50
-54.14
-61.16
-60.28
-52.64
-41.10
-28.84
-18.14
-9.78
-3.65
1.11
5.67
11.16
18.49
28.37
41.20
56.66
73.64
89.57
101.89
108.63
108.53
101.08
87.08
69.04
50.53
35.40
25.36
20.73
20.51
22.44
23.49
21.17
14.36
2.79
-13.22
-34.56
-60.82
-89.45
-116.29
-137.15
-148.90
-150.63
-144.76
-127.06
-100.36
-71.26
-43.44
-15.35
14.23
41.74
62.46
71.04
65.49
47.48
23.23
-0.15
-15.68
-20.38
-15.31
-3.65
10.71
24.66
35.05
40.27
40.24
35.95
28.44
19.17
10.11
3.08
-0.54
-0.83
1.64
6.09
11.43
15.84
17.58
15.74
10.43
2.84
-5.48
-12.83
-17.79
-19.56
-18.16
-13.83
-6.64
3.40
16.04
30.23
44.28
56.47
65.58
71.35
74.60
76.89
79.88
85.00
93.05
104.08
117.44
131.65
144.57
153.82
157.37
154.38
145.60
133.26
120.27
109.28
101.66
97.01
93.15
86.98
75.63
57.82
34.63
9.27
-14.17
-32.29
-43.58
-48.89
-50.80
-52.66
-57.94
-69.94
-91.54
-124.62
-168.86
-220.72
-273.32
-318.11
-347.69
-358.48
-351.58
-331.73
-304.94
-276.30
-248.66
-222.67
-197.56
-171.93
-144.32
-113.50
-78.83
-40.71
-1.01
36.88
68.67
90.22
98.81
93.98
78.03
55.63
32.63
14.49
4.48
2.75
6.69
12.56
17.50
21.02
25.02
32.54
45.94
65.40
88.62
111.81
131.53
146.19
156.76
166.08
177.13
191.43
208.09
224.00
234.93
236.91
227.48
206.69
177.12
143.00
109.00
78.85
54.38
35.35
20.49
8.69
0.02
-4.38
-4.19
-0.87
2.38
1.92
-4.57
-16.44
-30.73
-43.54
-52.60
-59.49
-67.57
-78.32
-88.99
-93.82
-87.29
-68.89
-43.76
-20.73
-9.80
-16.52
-38.78
-68.50
-96.87
-118.39
-133.20
-143.02
-147.96
-147.61
-141.12
-128.03
-110.17
-92.88
-83.11
-87.35
-106.83
-123.42
-120.65
-94.75
-56.91
-22.51
-8.81
-12.74
-26.71
-41.65
-50.90
-48.50
-38.05
-27.53
-24.91
-28.22
-35.75
-45.90
-55.70
-61.92
-63.73
-61.22
-52.43
-34.03
-4.41
33.35
71.60
102.66
122.46
130.72
129.71
123.22
114.52
105.44
96.43
87.77
80.66
76.80
76.52
78.14
79.44
78.48
74.57
68.12
60.55
53.98
50.30
50.22
53.14
58.52
64.60
69.86
72.52
70.74
63.14
49.48
31.04
10.58
-8.37
-22.81
-31.17
-33.96
-33.01
-30.42
-27.51
-24.57
-21.23
-17.33
-13.55
-11.04
-10.87
-13.15
-16.69
-19.36
-19.08
-14.90
-7.56
0.90
8.35
13.63
17.05
20.02
24.12
29.72
36.06
41.38
43.78
42.41
37.95
32.41
28.17
26.84
28.38
31.14
32.59
30.52
24.02
13.81
1.79
-9.87
-19.75
-27.66
-34.48
-41.44
-49.23
-57.60
-65.53
-71.69
-74.95
-74.49
-69.77
-60.51
-47.01
-30.45
-13.10
2.18
12.74
17.09
15.32
8.70
-1.26
-13.60
-28.15
-44.85
-62.97
-80.63
-95.17
-104.01
-105.62
-99.96
-88.34
-72.76
-55.24
-37.46
-20.80
-6.62
3.60
8.55
7.42
0.46
-10.94
-24.51
-37.46
-47.14
-51.58
-50.08
-43.55
-34.41
-25.85
-20.63
-19.81
-22.14
-24.43
-22.91
-14.86
0.20
20.45
42.66
63.62
81.19
94.66
104.24
110.34
113.15
112.58
108.64
101.85
93.31
84.38
76.20
69.24
63.14
57.08
50.27
42.46
34.07
25.95
18.91
13.39
9.39
6.64
4.80
3.66
3.09
2.96
3.05
3.16
3.17
3.18
3.47
4.30
5.79
7.79
9.95
11.86
13.21
13.75
13.32
11.82
9.23
5.75
1.78
-2.16
-5.62
-8.39
-10.57
-12.49
-14.51
-16.91
-19.73
-22.81
-25.76
-28.03
-28.94
-27.74
-23.69
-16.23
-5.16
9.27
26.27
44.58
62.72
79.32
93.36
104.36
112.33
117.56
120.45
121.41
120.92
119.57
118.08
117.12
117.12
118.11
119.71
121.28
122.08
121.34
118.23
111.77
100.84
84.30
61.14
30.68
-7.13
-51.42
-99.94
-148.94
-193.44
-228.15
-248.86
-253.64
-243.24
-220.64
-190.04
-155.96
-122.94
-95.50
-77.91
-73.21
-81.83
-100.71
-123.72
-143.44
-153.91
-152.64
-141.02
-123.17
-103.75
-86.02
-71.16
-58.87
-48.39
-39.34
-31.69
-25.27
-19.55
-13.64
-6.94
0.15
5.86
7.84
4.31
-4.37
-15.40
-24.79
-28.95
-26.19
-17.23
-4.69
8.58
20.34
29.89
37.78
44.11
48.30
49.67
48.28
45.36
43.52
44.80
50.47
60.55
72.64
83.14
89.02
88.90
82.95
72.90
59.56
43.94
27.46
10.63
-6.49
-23.61
-40.57
-58.06
-76.96
-99.87
-128.13
-152.15
-161.98
-153.17
-129.55
-99.45
-76.61
-60.10
-47.08
-34.66
-21.10
-5.16
10.81
24.95
37.21
48.61
60.83
72.74
82.61
89.27
91.91
90.37
86.45
82.46
79.76
78.98
77.24
73.59
70.44
71.79
79.85
94.26
111.64
126.91
135.55
134.09
122.19
102.40
80.68
59.24
40.21
25.27
14.69
6.93
-0.91
-10.68
-22.20
-33.51
-42.61
-47.81
-47.55
-42.31
-34.97
-29.85
-30.63
-39.14
-54.86
-75.46
-97.08
-115.58
-123.67
-117.14
-98.19
-74.80
-55.12
-42.84
-36.94
-34.27
-32.08
-29.30
-26.67
-25.03
-24.09
-22.37
-19.11
-12.79
-3.44
7.80
19.16
28.33
33.45
33.98
31.18
27.47
25.55
26.99
31.99
39.11
44.95
45.94
39.26
23.91
1.30
-24.50
-47.79
-62.54
-64.34
-52.24
-28.76
1.40
33.60
64.46
92.12
114.77
129.96
134.46
125.48
102.43
68.07
28.16
-10.13
-40.31
-58.35
-63.20
-56.51
-42.02
-24.50
-8.60
2.59
8.51
11.14
13.63
18.48
26.00
34.03
39.23
38.78
31.69
18.83
2.21
-15.87
-33.11
-47.05
-55.00
-54.65
-45.44
-29.64
-12.37
0.04
2.68
-5.60
-21.61
-39.36
-52.71
-57.91
-54.51
-44.66
-31.58
-18.09
-6.31
1.97
5.00
1.47
-8.54
-22.68
-36.59
-45.30
-45.27
-35.77
-19.26
-0.23
16.60
27.86
32.30
30.52
24.17
15.47
6.56
-0.87
-6.02
-9.10
-11.27
-13.86
-17.83
-23.30
-29.19
-33.90
-36.38
-36.74
-36.02
-35.59
-35.82
-36.43
-36.93
-36.38
-33.71
-28.29
-20.34
-10.87
-2.02
4.72
7.97
6.92
3.02
-0.38
0.18
6.55
18.42
32.63
45.91
54.14
53.39
43.23
27.83
14.45
10.81
22.82
51.60
95.81
150.37
199.74
226.94
223.32
193.61
149.72
109.78
74.12
42.08
14.71
-5.68
-17.65
-19.54
-12.98
-3.02
4.44
4.51
-2.22
-12.42
-22.24
-28.01
-27.42
-20.88
-11.35
-2.91
0.12
-3.30
-12.20
-24.19
-35.48
-42.02
-41.64
-35.21
-26.32
-20.29
-20.84
-29.49
-45.19
-64.39
-82.42
-95.49
-101.84
-101.82
-97.41
-90.44
-82.34
-74.03
-66.21
-59.61
-55.19
-53.56
-54.33
-55.97
-55.91
-51.19
-39.57
-20.68
3.53
29.33
52.68
70.69
82.34
88.47
91.58
94.93
100.78
109.33
118.69
125.76
127.48
121.66
107.13
84.48
55.81
23.76
-9.44
-41.89
-71.64
-93.29
-100.97
-94.34
-79.96
-66.54
-59.43
-58.92
-61.65
-63.32
-63.34
-60.69
-55.56
-47.86
-36.17
-18.66
5.17
33.55
62.80
88.32
105.36
110.99
105.80
93.49
78.69
64.74
52.74
41.88
30.46
17.04
0.96
-17.02
-34.65
-49.25
-58.79
-62.62
-61.94
-59.44
-58.28
-60.85
-67.46
-76.09
-83.91
-88.81
-90.03
-87.96
-82.88
-73.94
-59.32
-37.55
-8.96
22.96
52.42
73.67
83.21
80.98
69.73
53.42
34.47
15.84
-0.26
-13.19
-23.17
-30.26
-33.72
-32.96
-28.21
-20.87
-12.97
-6.61
-3.49
-2.75
-2.78
-2.22
-0.99
-0.40
-2.25
-7.68
-16.70
-27.84
-38.67
-47.11
-51.02
-49.73
-43.44
-32.59
-17.58
0.79
20.78
39.89
55.26
64.96
68.52
67.09
62.50
56.16
48.33
38.53
26.55
13.22
0.44
-9.74
-16.02
-18.36
-17.83
-15.92
-13.90
-12.36
-11.37
-10.79
-10.70
-11.49
-13.64
-17.34
-22.04
-26.22
-27.63
-23.94
-13.81
2.30
21.89
41.11
56.13
64.61
66.69
64.67
61.85
60.86
62.42
65.13
66.27
63.25
54.88
41.91
26.70
12.17
0.69
-6.55
-9.68
-9.72
-8.00
-5.77
-3.97
-3.29
-4.16
-6.86
-11.55
-18.17
-26.46
-35.80
-45.32
-54.03
-61.13
-66.19
-69.38
-71.22
-72.19
-72.27
-70.72
-66.30
-57.80
-44.82
-28.03
-9.05
10.15
27.80
42.62
53.73
60.40
61.99
58.16
49.15
35.95
20.17
3.70
-11.78
-24.98
-35.06
-41.56
-44.38
-43.86
-40.82
-36.45
-31.88
-27.75
-23.97
-19.88
-14.60
-7.30
2.56
15.32
31.14
49.87
70.77
92.22
111.78
126.70
134.72
134.83
127.60
114.76
98.42
80.22
60.94
40.75
19.79
-1.15
-20.58
-36.57
-47.51
-52.73
-52.68
-48.76
-42.73
-36.25
-30.52
-26.19
-23.47
-22.29
-22.56
-24.24
-27.25
-31.35
-36.04
-40.59
-44.37
-47.14
-49.24
-51.27
-53.55
-55.58
-56.00
-53.06
-45.48
-33.08
-17.00
0.67
17.48
31.05
39.40
41.13
35.69
23.78
7.44
-10.25
-26.04
-37.57
-44.14
-46.69
-47.07
-47.03
-47.51
-48.53
-49.53
-49.97
-49.62
-48.60
-47.02
-44.71
-41.11
-35.43
-26.91
-14.99
0.63
19.95
42.55
67.32
92.22
114.30
130.31
137.68
135.51
125.05
109.38
92.31
77.14
65.64
57.83
52.41
47.71
42.45
36.23
29.48
23.14
18.17
15.21
14.34
15.06
16.37
16.99
15.76
11.95
5.50
-3.08
-12.93
-23.13
-32.97
-41.96
-49.83
-56.45
-62.01
-67.13
-72.68
-79.38
-87.10
-94.41
-98.73
-97.21
-87.95
-70.94
-48.33
-23.78
-1.34
15.65
25.23
26.98
21.80
11.53
-1.47
-14.74
-26.12
-34.15
-38.24
-38.59
-35.95
-31.24
-25.40
-19.27
-13.59
-8.97
-5.69
-3.69
-2.56
-1.80
-1.17
-0.88
-1.41
-2.91
-4.65
-4.87
-1.33
7.55
21.70
39.22
57.20
73.10
85.75
95.33
102.51
107.38
109.07
106.22
98.06
85.22
69.62
53.69
39.32
27.35
17.79
10.52
5.67
3.64
4.54
7.64
11.27
13.29
11.94
6.51
-2.44
-13.35
-24.45
-34.39
-42.70
-49.54
-55.32
-60.37
-64.92
-69.35
-74.52
-81.57
-91.29
-103.20
-114.97
-122.69
-122.01
-109.69
-84.85
-49.44
-7.81
34.32
71.02
97.25
109.61
107.01
90.97
65.50
36.32
9.50
-10.14
-20.15
-20.95
-15.20
-6.71
1.01
5.65
6.53
4.37
0.77
-2.52
-4.28
-4.10
-2.44
-0.29
1.41
2.27
2.73
3.86
6.84
12.29
19.82
28.07
35.16
39.38
39.92
37.14
32.48
27.93
25.24
25.32
27.85
31.49
34.47
35.30
33.39
29.11
23.58
18.08
13.67
10.90
9.84
10.12
11.02
11.53
10.66
7.89
3.67
-0.65
-3.41
-3.58
-1.48
1.27
2.50
0.62
-4.64
-12.32
-20.87
-29.07
-36.42
-42.88
-48.42
-52.61
-54.76
-54.45
-52.03
-48.63
-45.64
-43.99
-43.53
-43.07
-40.90
-35.65
-27.03
-16.11
-4.87
4.54
10.61
12.95
12.15
9.36
5.68
1.87
-1.72
-5.02
-8.06
-10.87
-13.42
-15.61
-17.20
-17.79
-17.00
-14.65
-10.84
-5.91
-0.25
6.02
13.07
21.13
30.13
39.70
49.50
59.65
70.53
82.23
93.77
103.18
108.30
108.06
103.42
97.18
92.40
90.64
90.92
90.56
86.98
79.60
69.95
60.76
54.37
51.50
51.05
50.94
49.41
45.77
40.55
34.11
26.37
17.11
6.45
-5.00
-16.48
-27.14
-36.43
-43.55
-48.99
-53.46
-56.88
-57.98
-54.96
-46.62
-32.90
-15.53
3.32
19.04
27.07
24.87
12.42
-8.88
-37.60
-72.74
-114.13
-155.25
-187.15
-202.53
-200.68
-186.24
-164.79
-140.74
-117.11
-100.74
-91.94
-93.44
-107.43
-132.26
-162.58
-191.24
-212.10
-215.37
-197.26
-151.36
-85.94
-19.46
31.62
61.12
73.32
76.74
78.37
80.12
81.29
80.60
75.70
68.96
64.76
66.89
76.99
94.76
117.94
144.52
171.76
192.49
203.61
203.98
193.95
175.25
150.85
123.84
97.23
72.28
49.26
29.49
13.94
2.82
-4.73
-10.40
-16.38
-24.25
-34.86
-47.85
-61.01
-72.03
-79.37
-82.62
-82.36
-79.89
-76.88
-75.10
-75.89
-79.00
-82.80
-84.64
-81.72
-72.25
-56.28
-35.63
-13.06
8.87
28.77
46.05
60.16
70.00
73.87
70.21
58.70
40.99
20.52
1.68
-11.66
-17.27
-15.05
-6.79
4.59
16.07
25.33
31.15
33.35
32.47
29.34
24.78
19.52
14.14
8.99
4.13
-0.65
-5.76
-11.53
-18.00
-24.87
-31.54
-37.18
-40.84
-41.70
-39.34
-34.16
-27.51
-21.57
-18.78
-21.12
-29.37
-42.68
-58.69
-74.00
-85.14
-89.47
-86.07
-76.04
-62.23
-48.33
-37.70
-32.30
-32.31
-36.24
-41.75
-46.59
-49.16
-48.79
-45.66
-40.57
-34.55
-28.53
-23.10
-18.47
-14.63
-11.52
-8.99
-6.78
-4.37
-1.11
3.53
9.85
17.71
26.69
36.55
47.43
59.59
72.89
86.39
98.45
107.70
113.38
115.49
114.68
111.77
107.54
102.43
96.57
89.65
81.95
73.46
63.90
53.14
41.77
31.32
23.78
20.70
22.27
28.78
39.29
51.73
63.40
71.84
75.41
73.60
67.23
58.00
50.31
48.11
53.08
63.95
77.58
90.63
101.20
109.55
108.38
96.13
76.45
55.96
39.37
27.43
18.04
8.56
-0.20
-10.84
-23.09
-35.50
-46.39
-54.74
-60.20
-63.63
-67.05
-73.08
-84.77
-102.63
-126.02
-151.75
-175.40
-192.32
-200.17
-199.18
-191.56
-180.07
-165.94
-150.33
-134.54
-119.59
-104.36
-87.90
-66.03
-36.40
-0.23
38.46
73.80
100.49
112.38
109.30
96.01
79.05
62.98
49.39
38.14
28.59
20.49
13.69
8.45
4.36
-0.15
-6.65
-15.69
-26.33
-36.57
-44.05
-46.97
-44.09
-35.64
-23.02
-8.27
6.71
20.60
32.74
43.13
51.06
56.36
58.82
58.07
53.61
45.21
33.16
18.53
3.12
-10.92
-21.80
-28.93
-33.01
-35.34
-37.00
-38.37
-39.25
-39.24
-37.89
-35.12
-31.28
-26.81
-21.67
-15.36
-7.16
3.37
16.18
30.90
46.36
60.63
71.50
77.35
77.67
72.99
64.56
51.17
33.52
14.03
-4.26
-19.46
-31.18
-39.93
-46.28
-50.32
-51.67
-49.57
-44.65
-37.75
-30.36
-23.71
-18.26
-13.63
-9.17
-4.64
-0.24
3.24
5.17
4.97
3.56
2.75
4.15
8.21
13.92
19.64
23.77
25.62
25.40
24.09
22.61
21.35
20.06
18.27
15.80
12.89
10.14
8.15
7.52
8.65
11.71
16.63
23.06
30.41
37.91
44.76
50.22
53.64
54.45
52.31
47.45
40.93
34.49
29.80
27.44
26.31
24.11
18.66
9.47
-1.46
-10.33
-13.28
-8.23
4.31
21.93
41.68
60.92
77.45
88.93
92.76
86.82
70.65
46.13
16.99
-12.83
-40.63
-65.30
-86.49
-103.40
-114.41
-117.86
-113.58
-103.75
-92.30
-83.18
-78.56
-78.18
-80.35
-83.53
-87.20
-91.67
-96.90
-101.66
-103.61
-100.54
-91.73
-78.65
-64.26
-51.63
-42.56
-36.97
-33.38
-29.96
-25.42
-19.27
-11.59
-2.78
6.46
15.02
21.46
24.48
23.64
19.92
15.64
13.68
16.08
23.37
34.49
47.48
60.37
71.72
80.74
87.17
91.07
92.21
90.28
85.11
77.19
67.94
59.53
54.25
53.69
57.94
64.57
69.75
69.81
63.16
51.13
37.06
24.32
14.73
8.26
2.93
-3.33
-11.57
-21.63
-33.17
-46.96
-65.46
-91.49
-120.73
-145.69
-158.18
-154.53
-137.42
-112.89
-86.50
-61.79
-40.02
-21.03
-5.14
6.63
13.41
15.50
14.78
14.05
15.56
20.02
26.69
33.39
37.48
37.57
33.89
26.92
18.92
11.49
5.73
2.73
3.71
8.84
17.08
25.58
30.53
29.18
20.97
7.86
-7.15
-21.45
-35.24
-50.64
-70.19
-93.53
-114.71
-124.45
-114.76
-84.20
-33.98
23.95
73.27
99.49
94.60
61.79
16.12
-24.33
-50.26
-61.25
-59.92
-45.50
-15.65
28.71
80.50
125.94
151.88
148.21
115.79
67.60
23.78
0.70
5.73
39.46
95.31
164.65
236.83
300.30
346.00
368.72
363.54
329.73
277.11
210.42
143.90
93.55
64.37
47.95
35.29
18.98
-5.71
-32.84
-58.49
-81.89
-103.72
-125.49
-147.68
-169.34
-195.32
-230.11
-267.96
-307.06
-348.46
-390.87
-430.72
-462.29
-446.24
-367.12
-284.65
-219.94
-160.77
-103.78
-48.18
2.82
43.50
68.63
71.31
52.43
27.34
9.09
2.93
8.38
19.09
27.54
29.54
20.44
-1.18
-31.17
-67.99
-110.95
-154.62
-190.33
-208.59
-202.57
-174.31
-116.18
-35.80
43.65
101.43
133.97
149.01
155.26
157.55
155.77
148.92
136.73
121.32
106.41
95.76
90.40
88.67
87.95
85.69
80.65
71.96
60.88
50.39
43.34
40.45
40.43
41.32
41.51
40.28
36.64
31.29
26.28
23.40
23.00
24.03
25.02
24.83
23.03
19.43
14.84
10.76
8.33
7.76
8.32
8.90
8.66
7.35
5.25
3.27
2.98
4.91
8.97
14.31
19.71
24.15
27.14
28.86
30.07
31.66
34.41
39.02
45.93
54.86
64.34
71.65
73.34
66.70
51.46
30.35
8.43
-9.19
-19.58
-22.94
-21.85
-19.52
-18.04
-17.88
-18.44
-18.98
-19.21
-19.21
-18.99
-18.25
-16.62
-14.00
-10.62
-6.54
-1.39
5.42
13.84
22.56
29.26
31.46
27.95
19.37
8.10
-3.05
-11.87
-17.92
-21.96
-24.77
-26.36
-26.18
-23.88
-20.03
-16.08
-13.73
-14.65
-18.40
-22.11
-21.93
-15.67
-4.58
7.10
14.46
14.66
7.12
-4.89
-15.80
-20.93
-19.37
-14.46
-11.33
-13.63
-22.03
-37.01
-58.61
-87.22
-123.23
-165.84
-211.35
-252.08
-277.94
-269.68
-219.26
-136.67
-45.69
31.31
83.64
111.43
120.17
115.84
105.16
88.49
66.65
43.00
22.83
10.74
8.47
14.96
27.67
42.69
55.24
61.93
61.51
53.28
39.18
23.28
10.35
5.00
5.62
7.34
6.42
1.36
-5.53
-9.91
-8.18
0.64
14.50
29.25
40.56
45.74
44.21
37.46
28.33
20.08
15.77
17.59
25.93
39.11
53.57
64.95
70.01
68.04
60.96
51.94
43.59
36.62
30.19
22.98
14.51
5.90
-0.72
-3.64
-2.75
0.32
3.12
3.81
1.99
-1.42
-4.81
-6.88
-7.24
-6.46
-5.59
-5.59
-6.80
-8.88
-11.12
-12.77
-13.34
-12.79
-11.43
-9.80
-8.46
-7.80
-7.89
-8.45
-8.97
-8.92
-8.05
-6.48
-4.71
-3.36
-2.88
-3.37
-4.53
-5.82
-6.74
-7.04
-6.79
-6.29
-5.85
-5.66
-5.72
-5.87
-5.93
-5.80
-5.52
-5.23
-5.07
-5.14
-5.45
-5.92
-6.47
-7.02
-7.50
-7.87
-8.06
-8.05
-7.89
-7.68
-7.50
-7.39
-7.28
-7.01
-6.44
-5.55
-4.44
-3.34
-2.41
-1.72
-1.18
-0.65
-0.02
0.74
1.56
2.34
3.01
3.55
3.95
4.21
4.32
4.25
4.02
3.66
3.24
2.81
2.41
2.04
1.68
1.29
0.84
0.28
-0.38
-1.09
-1.75
-2.25
-2.54
-2.63
-2.58
-2.46
-2.36
-2.33
-2.38
-2.55
-2.83
-3.22
-3.71
-4.22
-4.66
-4.93
-4.95
-4.69
-4.18
-3.50
-2.73
-1.98
-1.28
-0.61
0.08
0.85
1.66
2.42
3.01
3.35
3.46
3.40
3.27
3.09
2.83
2.43
1.92
1.38
0.94
0.70
0.66
0.73
0.80
0.80
0.75
0.72
0.76
0.87
0.96
0.92
0.69
0.28
-0.23
-0.73
-1.18
-1.59
-2.03
-2.59
-3.27
-4.00
-4.61
-4.95
-4.92
-4.51
-3.79
-2.85
-1.76
-0.58
0.64
1.85
2.99
4.02
4.90
5.59
6.05
6.22
6.07
5.64
5.07
4.54
4.16
3.96
3.82
3.60
3.20
2.62
1.94
1.28
0.75
0.40
0.23
0.21
0.26
0.31
0.27
0.09
-0.22
-0.62
-1.07
-1.52
-1.96
-2.38
-2.74
-2.98
-3.09
-3.10
-3.10
-3.22
-3.52
-3.96
-4.42
-4.68
-4.54
-3.90
-2.76
-1.28
0.28
1.63
2.55
2.96
2.94
2.70
2.47
2.39
2.49
2.70
2.90
3.03
3.08
3.08
3.08
3.15
3.35
3.76
4.42
5.31
6.31
7.18
7.64
7.53
6.81
5.65
4.31
3.01
1.91
0.99
0.19
-0.59
-1.37
-2.14
-2.89
-3.67
-4.57
-5.69
-7.05
-8.52
-9.88
-10.86
-11.22
-10.89
-9.92
-8.44
-6.65
-4.72
-2.80
-1.01
0.53
1.74
2.56
2.99
3.10
2.97
2.73
2.46
2.21
2.00
1.79
1.59
1.39
1.22
1.11
1.13
1.27
1.52
1.83
2.09
2.21
2.10
1.72
1.08
0.25
-0.66
-1.53
-2.25
-2.82
-3.26
-3.65
-4.05
-4.49
-4.88
-5.11
-5.08
-4.74
-4.15
-3.41
-2.64
-1.89
-1.16
-0.41
0.40
1.21
1.93
2.41
2.54
2.26
1.61
0.73
-0.17
-0.87
-1.19
-1.04
-0.47
0.34
1.15
1.72
1.94
1.84
1.54
1.19
0.86
0.52
0.10
-0.43
-1.00
-1.46
-1.70
-1.71
-1.64
-1.69
-2.00
-2.55
-3.17
-3.63
-3.80
-3.70
-3.46
-3.23
-3.02
-2.72
-2.21
-1.39
-0.34
0.79
1.81
2.60
3.13
3.46
3.65
3.72
3.66
3.50
3.26
3.00
2.76
2.54
2.34
2.16
2.00
1.90
1.84
1.82
1.77
1.68
1.53
1.31
1.03
0.65
0.14
-0.48
-1.14
-1.74
-2.18
-2.42
-2.51
-2.57
-2.73
-3.06
-3.57
-4.19
-4.85
-5.40
-5.71
-5.66
-5.15
-4.23
-3.00
-1.68
-0.45
0.62
1.55
2.44
3.33
4.21
4.92
5.29
5.20
4.67
3.86
3.00
2.32
1.97
1.96
2.20
2.53
2.81
2.95
2.96
2.87
2.72
2.49
2.16
1.74
1.28
0.89
0.68
0.63
0.62
0.50
0.18
-0.35
-0.98
-1.61
-2.16
-2.63
-3.07
-3.49
-3.86
-4.09
-4.12
-3.97
-3.71
-3.46
-3.27
-3.12
-2.95
-2.69
-2.30
-1.77
-1.13
-0.39
0.42
1.26
2.05
2.69
3.09
3.23
3.20
3.15
3.19
3.34
3.51
3.52
3.26
2.76
2.14
1.62
1.30
1.24
1.38
1.59
1.80
1.94
1.99
1.92
1.70
1.30
0.76
0.14
-0.49
-1.06
-1.57
-2.02
-2.42
-2.77
-3.03
-3.18
-3.21
-3.16
-3.09
-3.05
-3.00
-2.85
-2.48
-1.82
-0.91
0.12
1.10
1.91
2.53
3.03
3.50
3.96
4.36
4.58
4.51
4.16
3.63
3.07
2.61
2.28
2.04
1.81
1.56
1.30
1.08
0.94
0.88
0.87
0.87
0.80
0.66
0.43
0.12
-0.22
-0.56
-0.85
-1.11
-1.36
-1.68
-2.14
-2.73
-3.43
-4.13
-4.76
-5.21
-5.42
-5.37
-5.05
-4.48
-3.71
-2.78
-1.75
-0.67
0.40
1.36
2.14
2.70
3.02
3.18
3.25
3.30
3.38
3.48
3.58
3.65
3.69
3.72
3.74
3.76
3.75
3.67
3.48
3.13
2.63
2.05
1.51
1.15
1.05
1.18
1.41
1.55
1.49
1.21
0.75
0.20
-0.39
-1.01
-1.65
-2.22
-2.61
-2.75
-2.65
-2.46
-2.38
-2.60
-3.16
-3.94
-4.73
-5.28
-5.43
-5.14
-4.46
-3.54
-2.53
-1.59
-0.81
-0.21
0.22
0.56
0.90
1.35
1.94
2.64
3.31
3.75
3.81
3.48
2.90
2.33
2.03
2.12
2.58
3.24
3.91
4.44
4.76
4.84
4.69
4.35
3.89
3.40
2.98
2.66
2.43
2.19
1.89
1.52
1.11
0.70
0.28
-0.19
-0.77
-1.42
-2.04
-2.50
-2.74
-2.81
-2.87
-3.07
-3.49
-4.06
-4.62
-5.03
-5.21
-5.19
-5.00
-4.69
-4.23
-3.56
-2.67
-1.58
-0.39
0.78
1.80
2.58
3.08
3.29
3.27
3.08
2.83
2.62
2.47
2.39
2.35
2.31
2.26
2.22
2.19
2.13
2.01
1.79
1.49
1.19
0.96
0.88
0.91
0.96
0.91
0.67
0.26
-0.26
-0.77
-1.21
-1.55
-1.82
-2.06
-2.28
-2.51
-2.77
-3.06
-3.43
-3.87
-4.36
-4.82
-5.18
-5.38
-5.41
-5.30
-5.14
-4.97
-4.82
-4.68
-4.49
-4.16
-3.66
-2.96
-2.12
-1.22
-0.33
0.51
1.30
2.07
2.80
3.49
4.08
4.52
4.76
4.85
4.84
4.81
4.82
4.85
4.84
4.71
4.41
3.96
3.43
2.95
2.61
2.41
2.29
2.13
1.85
1.40
0.81
0.17
-0.45
-0.99
-1.46
-1.90
-2.35
-2.85
-3.38
-3.87
-4.24
-4.45
-4.49
-4.35
-4.08
-3.71
-3.24
-2.74
-2.24
-1.77
-1.33
-0.87
-0.32
0.36
1.14
1.94
2.63
3.12
3.39
3.46
3.36
3.10
2.68
2.15
1.57
1.08
0.80
0.81
1.05
1.37
1.60
1.58
1.25
0.67
-0.05
-0.78
-1.41
-1.85
-2.08
-2.08
-1.87
-1.50
-1.07
-0.70
-0.50
-0.53
-0.75
-1.06
-1.36
-1.58
-1.73
-1.88
-2.11
-2.43
-2.79
-3.10
-3.27
-3.26
-3.16
-3.06
-3.05
-3.13
-3.19
-3.12
-2.80
-2.24
-1.52
-0.75
-0.06
0.52
1.00
1.44
1.89
2.35
2.80
3.19
3.49
3.68
3.75
3.73
3.64
3.48
3.25
2.97
2.68
2.46
2.33
2.30
2.31
2.27
2.12
1.83
1.47
1.14
0.91
0.78
0.66
0.43
-0.00
-0.61
-1.29
-1.94
-2.47
-2.87
-3.19
-3.45
-3.65
-3.77
-3.75
-3.57
-3.26
-2.83
-2.35
-1.86
-1.38
-0.91
-0.45
-0.01
0.40
0.78
1.11
1.41
1.69
1.96
2.17
2.27
2.20
1.94
1.53
1.11
0.81
0.74
0.91
1.22
1.52
1.68
1.59
1.23
0.67
0.06
-0.47
-0.83
-0.98
-0.98
-0.91
-0.88
-0.99
-1.26
-1.68
-2.21
-2.77
-3.33
-3.83
-4.23
-4.48
-4.51
-4.29
-3.81
-3.14
-2.36
-1.55
-0.77
-0.02
0.71
1.45
2.16
2.83
3.41
3.85
4.14
4.26
4.18
3.89
3.44
2.88
2.29
1.73
1.24
0.85
0.60
0.53
0.65
0.91
1.14
1.18
0.91
0.32
-0.43
-1.12
-1.56
-1.68
-1.52
-1.22
-0.94
-0.78
-0.77
-0.89
-1.12
-1.43
-1.80
-2.19
-2.55
-2.80
-2.88
-2.76
-2.46
-2.04
-1.58
-1.14
-0.73
-0.28
0.24
0.87
1.58
2.26
2.77
3.04
3.06
2.88
2.60
2.32
2.09
1.92
1.83
1.80
1.81
1.82
1.77
1.63
1.36
1.00
0.60
0.25
-0.01
-0.12
-0.11
-0.06
-0.03
-0.13
-0.40
-0.82
-1.32
-1.78
-2.11
-2.31
-2.43
-2.56
-2.76
-3.03
-3.36
-3.68
-3.98
-4.27
-4.54
-4.76
-4.86
-4.73
-4.27
-3.48
-2.42
-1.26
-0.18
0.70
1.33
1.76
2.08
2.36
2.63
2.90
3.11
3.25
3.29
3.23
3.05
2.79
2.47
2.18
2.02
2.04
2.25
2.55
2.84
3.02
3.06
2.97
2.79
2.60
2.42
2.26
2.12
1.96
1.76
1.47
1.10
0.64
0.15
-0.35
-0.82
-1.25
-1.67
-2.11
-2.57
-3.03
-3.47
-3.83
-4.08
-4.22
-4.25
-4.20
-4.10
-3.95
-3.67
-3.21
-2.49
-1.52
-0.41
0.67
1.52
2.02
2.21
2.21
2.17
2.17
2.18
2.15
2.01
1.82
1.68
1.66
1.80
1.99
2.11
2.06
1.82
1.48
1.18
1.04
1.08
1.28
1.53
1.71
1.73
1.57
1.26
0.90
0.56
0.30
0.11
-0.07
-0.29
-0.59
-0.99
-1.43
-1.87
-2.28
-2.63
-2.93
-3.22
-3.51
-3.76
-3.92
-3.88
-3.57
-2.97
-2.12
-1.15
-0.22
0.56
1.13
1.51
1.73
1.84
1.86
1.80
1.68
1.56
1.49
1.52
1.66
1.87
2.10
2.28
2.38
2.38
2.27
2.05
1.75
1.43
1.14
0.95
0.89
0.93
1.00
0.97
0.75
0.31
-0.30
-0.98
-1.58
-2.03
-2.30
-2.44
-2.50
-2.52
-2.53
-2.55
-2.63
-2.80
-3.12
-3.53
-3.93
-4.16
-4.12
-3.78
-3.25
-2.64
-2.05
-1.49
-0.91
-0.24
0.55
1.40
2.15
2.67
2.89
2.82
2.55
2.18
1.82
1.53
1.33
1.22
1.20
1.28
1.43
1.58
1.67
1.65
1.52
1.36
1.27
1.35
1.58
1.88
2.09
2.07
1.74
1.14
0.39
-0.35
-0.94
-1.33
-1.56
-1.74
-1.96
-2.28
-2.67
-3.10
-3.50
-3.87
-4.24
-4.65
-5.08
-5.49
-5.82
-6.04
-6.16
-6.21
-6.20
-6.08
-5.77
-5.23
-4.48
-3.62
-2.84
-2.26
-1.90
-1.70
-1.48
-1.13
-0.58
0.13
0.94
1.78
2.64
3.54
4.48
5.40
6.20
6.76
7.06
7.15
7.19
7.28
7.39
7.43
7.22
6.68
5.85
4.92
4.08
3.49
3.17
3.04
2.93
2.74
2.40
1.95
1.44
0.95
0.51
0.13
-0.21
-0.54
-0.89
-1.26
-1.65
-2.07
-2.53
-3.10
-3.80
-4.59
-5.36
-5.92
-6.13
-5.91
-5.28
-4.38
-3.37
-2.40
-1.54
-0.82
-0.25
0.18
0.47
0.63
0.71
0.79
0.94
1.17
1.45
1.72
1.94
2.15
2.40
2.72
3.12
3.52
3.84
3.99
3.91
3.62
3.18
2.67
2.19
1.82
1.59
1.48
1.42
1.33
1.16
0.90
0.58
0.21
-0.19
-0.66
-1.26
-1.96
-2.71
-3.40
-3.95
-4.32
-4.57
-4.80
-5.07
-5.38
-5.64
-5.70
-5.43
-4.76
-3.71
-2.43
-1.12
0.04
0.89
1.37
1.54
1.50
1.40
1.32
1.35
1.48
1.72
2.01
2.32
2.60
2.78
2.86
2.82
2.69
2.48
2.17
1.75
1.23
0.67
0.21
-0.04
-0.02
0.20
0.46
0.57
0.43
0.06
-0.40
-0.80
-1.03
-1.08
-1.05
-1.10
-1.36
-1.86
-2.53
-3.22
-3.79
-4.15
-4.27
-4.19
-3.93
-3.52
-2.93
-2.20
-1.40
-0.67
-0.12
0.21
0.41
0.63
1.00
1.54
2.13
2.60
2.82
2.74
2.42
2.00
1.62
1.39
1.37
1.52
1.78
2.06
2.26
2.32
2.19
1.91
1.53
1.14
0.82
0.64
0.58
0.63
0.69
0.68
0.54
0.27
-0.07
-0.40
-0.66
-0.86
-1.03
-1.23
-1.50
-1.85
-2.27
-2.69
-3.07
-3.34
-3.46
-3.44
-3.29
-3.06
-2.81
-2.55
-2.27
-1.87
-1.26
-0.39
0.66
1.72
2.57
3.04
3.08
2.78
2.33
1.92
1.68
1.64
1.74
1.88
2.00
2.06
2.10
2.15
2.26
2.42
2.56
2.60
2.46
2.12
1.70
1.31
1.06
0.96
0.89
0.70
0.28
-0.35
-1.01
-1.53
-1.79
-1.80
-1.67
-1.54
-1.51
-1.59
-1.78
-2.06
-2.45
-2.92
-3.41
-3.81
-4.00
-3.92
-3.58
-3.09
-2.60
-2.16
-1.76
-1.32
-0.75
-0.01
0.83
1.66
2.38
2.91
3.24
3.39
3.38
3.23
2.95
2.58
2.19
1.84
1.59
1.46
1.44
1.50
1.59
1.64
1.58
1.34
0.93
0.38
-0.22
-0.75
-1.11
-1.27
-1.27
-1.25
-1.32
-1.54
-1.91
-2.35
-2.73
-2.96
-3.02
-2.93
-2.77
-2.60
-2.43
-2.26
-2.06
-1.82
-1.53
-1.16
-0.74
-0.25
0.30
0.91
1.56
2.22
2.82
3.25
3.43
3.30
2.92
2.43
2.02
1.81
1.82
1.97
2.12
2.17
2.10
1.94
1.80
1.72
1.69
1.66
1.56
1.36
1.09
0.81
0.59
0.46
0.37
0.23
-0.03
-0.44
-0.94
-1.44
-1.84
-2.12
-2.32
-2.55
-2.89
-3.36
-3.90
-4.40
-4.73
-4.80
-4.58
-4.12
-3.50
-2.82
-2.16
-1.57
-1.02
-0.50
0.04
0.60
1.13
1.55
1.79
1.83
1.74
1.64
1.67
1.90
2.31
2.76
3.11
3.24
3.13
2.86
2.54
2.25
2.02
1.83
1.68
1.56
1.50
1.50
1.54
1.55
1.51
1.41
1.31
1.25
1.24
1.22
1.13
0.92
0.61
0.29
0.05
-0.11
-0.23
-0.44
-0.87
-1.55
-2.41
-3.29
-4.00
-4.41
-4.51
-4.39
-4.17
-3.95
-3.75
-3.48
-3.07
-2.45
-1.65
-0.78
0.03
0.70
1.23
1.64
2.01
2.35
2.65
2.87
3.00
3.02
2.93
2.71
2.35
1.85
1.26
0.68
0.24
0.05
0.16
0.48
0.89
1.23
1.38
1.34
1.15
0.89
0.65
0.45
0.32
0.26
0.25
0.27
0.25
0.15
-0.07
-0.42
-0.86
-1.33
-1.77
-2.09
-2.23
-2.19
-2.04
-1.86
-1.76
-1.78
-1.92
-2.10
-2.22
-2.24
-2.16
-2.03
-1.85
-1.60
-1.17
-0.50
0.40
1.37
2.23
2.77
2.94
2.76
2.41
2.08
1.88
1.85
1.95
2.07
2.15
2.14
2.05
1.88
1.65
1.37
1.08
0.83
0.64
0.53
0.49
0.51
0.54
0.56
0.50
0.32
0.00
-0.41
-0.83
-1.18
-1.40
-1.49
-1.53
-1.63
-1.84
-2.18
-2.62
-3.05
-3.38
-3.55
-3.53
-3.36
-3.09
-2.76
-2.41
-2.05
-1.64
-1.16
-0.60
0.01
0.64
1.24
1.76
2.20
2.50
2.65
2.65
2.53
2.33
2.13
1.97
1.86
1.78
1.75
1.79
1.95
2.23
2.55
2.79
2.79
2.48
1.86
1.10
0.39
-0.10
-0.31
-0.29
-0.20
-0.23
-0.48
-0.95
-1.53
-2.07
-2.44
-2.61
-2.59
-2.49
-2.38
-2.34
-2.42
-2.65
-3.02
-3.50
-4.01
-4.42
-4.62
-4.51
-4.09
-3.39
-2.52
-1.59
-0.70
0.09
0.73
1.23
1.56
1.76
1.83
1.80
1.72
1.65
1.64
1.75
1.96
2.23
2.48
2.61
2.58
2.38
2.05
1.67
1.30
1.04
0.95
1.03
1.24
1.45
1.52
1.34
0.93
0.44
0.08
0.03
0.32
0.83
1.29
1.47
1.27
0.70
-0.08
-0.93
-1.73
-2.45
-3.08
-3.59
-3.97
-4.21
-4.32
-4.37
-4.40
-4.39
-4.25
-3.87
-3.19
-2.24
-1.14
-0.06
0.89
1.66
2.25
2.70
3.03
3.25
3.35
3.33
3.22
3.02
2.77
2.48
2.18
1.92
1.72
1.59
1.49
1.41
1.34
1.33
1.40
1.56
1.75
1.86
1.81
1.59
1.25
0.87
0.47
0.03
-0.46
-0.96
-1.39
-1.63
-1.66
-1.55
-1.46
-1.54
-1.83
-2.23
-2.58
-2.75
-2.71
-2.57
-2.49
-2.54
-2.71
-2.89
-2.93
-2.74
-2.30
-1.69
-1.00
-0.31
0.35
0.96
1.51
1.96
2.27
2.38
2.30
2.11
1.88
1.72
1.68
1.74
1.86
1.99
2.07
2.09
2.05
1.94
1.79
1.58
1.31
0.97
0.57
0.14
-0.27
-0.60
-0.83
-0.95
-1.02
-1.09
-1.21
-1.36
-1.50
-1.60
-1.70
-1.89
-2.28
-2.89
-3.64
-4.32
-4.71
-4.67
-4.21
-3.50
-2.75
-2.14
-1.68
-1.27
-0.77
-0.08
0.79
1.73
2.60
3.26
3.65
3.77
3.68
3.45
3.17
2.90
2.69
2.53
2.38
2.18
1.92
1.64
1.39
1.19
1.06
0.95
0.83
0.69
0.53
0.36
0.17
-0.03
-0.25
-0.45
-0.58
-0.63
-0.58
-0.52
-0.50
-0.58
-0.77
-1.04
-1.35
-1.67
-1.99
-2.30
-2.62
-2.96
-3.35
-3.79
-4.28
-4.80
-5.25
-5.54
-5.53
-5.15
-4.39
-3.35
-2.19
-1.09
-0.17
0.53
1.07
1.54
2.00
2.46
2.79
2.90
2.73
2.34
1.86
1.48
1.33
1.41
1.64
1.89
2.04
2.05
1.96
1.88
1.88
1.99
2.15
2.29
2.34
2.27
2.12
1.91
1.70
1.51
1.32
1.14
0.94
0.72
0.45
0.16
-0.13
-0.40
-0.64
-0.88
-1.16
-1.49
-1.87
-2.26
-2.61
-2.92
-3.25
-3.69
-4.26
-4.90
-5.44
-5.70
-5.51
-4.85
-3.79
-2.51
-1.22
-0.08
0.81
1.46
1.93
2.30
2.64
2.96
3.25
3.44
3.49
3.38
3.15
2.83
2.47
2.16
1.95
1.88
1.96
2.11
2.26
2.33
2.28
2.14
1.98
1.87
1.82
1.82
1.80
1.72
1.54
1.26
0.89
0.47
0.04
-0.34
-0.62
-0.78
-0.86
-0.93
-1.09
-1.39
-1.80
-2.24
-2.62
-2.87
-3.02
-3.14
-3.32
-3.63
-4.05
-4.50
-4.83
-4.86
-4.49
-3.71
-2.63
-1.43
-0.28
0.72
1.54
2.22
2.77
3.17
3.33
3.22
2.87
2.43
2.06
1.87
1.85
1.93
2.02
2.08
2.11
2.15
2.17
2.12
1.98
1.74
1.50
1.38
1.44
1.62
1.79
1.79
1.55
1.10
0.52
-0.09
-0.70
-1.27
-1.78
-2.18
-2.41
-2.44
-2.34
-2.21
-2.18
-2.29
-2.52
-2.80
-3.09
-3.39
-3.69
-3.97
-4.18
-4.19
-3.93
-3.39
-2.61
-1.72
-0.81
0.05
0.84
1.57
2.25
2.88
3.43
3.84
4.04
3.99
3.71
3.29
2.86
2.57
2.46
2.52
2.66
2.80
2.89
2.93
2.94
2.93
2.87
2.69
2.34
1.83
1.25
0.72
0.35
0.21
0.24
0.31
0.30
0.10
-0.28
-0.78
-1.28
-1.70
-2.05
-2.34
-2.61
-2.87
-3.09
-3.25
-3.35
-3.42
-3.51
-3.64
-3.81
-4.05
-4.34
-4.63
-4.83
-4.80
-4.42
-3.66
-2.64
-1.54
-0.57
0.15
0.65
1.04
1.43
1.86
2.29
2.65
2.88
2.98
2.98
2.89
2.74
2.57
2.43
2.41
2.51
2.69
2.86
2.91
2.80
2.60
2.39
2.25
2.21
2.23
2.23
2.17
2.05
1.86
1.57
1.18
0.66
0.08
-0.47
-0.89
-1.14
-1.26
-1.36
-1.53
-1.84
-2.23
-2.64
-2.97
-3.20
-3.34
-3.42
-3.47
-3.49
-3.46
-3.31
-3.02
-2.60
-2.06
-1.46
-0.83
-0.17
0.50
1.20
1.87
2.46
2.89
3.11
3.11
2.95
2.69
2.42
2.21
2.09
2.10
2.23
2.42
2.62
2.76
2.79
2.70
2.54
2.36
2.17
1.94
1.63
1.21
0.69
0.17
-0.26
-0.53
-0.68
-0.79
-1.00
-1.37
-1.87
-2.39
-2.83
-3.14
-3.35
-3.58
-3.92
-4.37
-4.81
-5.08
-5.01
-4.51
-3.62
-2.48
-1.28
-0.19
0.69
1.32
1.77
2.09
2.34
2.53
2.67
2.75
2.79
2.85
2.95
3.05
3.06
2.87
2.44
1.87
1.31
0.96
0.91
1.12
1.40
1.55
1.44
1.10
0.70
0.42
0.38
0.58
0.87
1.07
1.04
0.73
0.19
-0.47
-1.14
-1.78
-2.39
-2.96
-3.49
-3.95
-4.34
-4.63
-4.85
-5.02
-5.13
-5.18
-5.10
-4.84
-4.34
-3.59
-2.65
-1.59
-0.54
0.36
1.05
1.51
1.80
2.01
2.23
2.51
2.83
3.11
3.28
3.28
3.11
2.84
2.58
2.44
2.50
2.77
3.17
3.54
3.75
3.71
3.45
3.07
2.70
2.41
2.23
2.11
1.98
1.79
1.52
1.18
0.79
0.37
-0.07
-0.49
-0.83
-1.05
-1.15
-1.17
-1.22
-1.38
-1.68
-2.11
-2.59
-3.04
-3.42
-3.69
-3.87
-3.94
-3.91
-3.77
-3.53
-3.17
-2.69
-2.05
-1.23
-0.25
0.81
1.80
2.56
2.98
3.06
2.89
2.62
2.40
2.27
2.23
2.23
2.23
2.20
2.14
2.06
1.98
1.89
1.77
1.65
1.54
1.49
1.54
1.68
1.87
2.03
2.06
1.89
1.49
0.94
0.38
-0.08
-0.38
-0.55
-0.67
-0.81
-1.04
-1.34
-1.70
-2.11
-2.60
-3.17
-3.75
-4.27
-4.58
-4.60
-4.30
-3.74
-3.03
-2.25
-1.46
-0.69
0.04
0.69
1.20
1.55
1.76
1.87
1.97
2.10
2.25
2.37
2.41
2.35
2.19
1.97
1.71
1.47
1.28
1.18
1.18
1.30
1.45
1.58
1.60
1.49
1.30
1.11
0.96
0.86
0.73
0.50
0.17
-0.19
-0.47
-0.57
-0.50
-0.37
-0.32
-0.46
-0.83
-1.34
-1.87
-2.34
-2.70
-2.98
-3.20
-3.38
-3.51
-3.60
-3.68
-3.76
-3.88
-4.02
-4.15
-4.25
-4.26
-4.15
-3.83
-3.24
-2.35
-1.22
0.01
1.12
1.92
2.36
2.49
2.44
2.40
2.43
2.54
2.68
2.82
2.93
3.04
3.15
3.20
3.15
2.97
2.72
2.48
2.35
2.35
2.39
2.34
2.13
1.77
1.38
1.07
0.90
0.83
0.78
0.68
0.51
0.34
0.19
0.10
0.09
0.12
0.15
0.12
-0.02
-0.30
-0.71
-1.19
-1.68
-2.11
-2.47
-2.76
-3.01
-3.24
-3.50
-3.81
-4.18
-4.57
-4.91
-5.04
-4.86
-4.32
-3.49
-2.49
-1.45
-0.45
0.47
1.28
1.92
2.30
2.37
2.14
1.71
1.25
0.92
0.78
0.80
0.87
0.86
0.70
0.45
0.20
0.12
0.29
0.68
1.17
1.62
1.91
2.06
2.13
2.21
2.31
2.37
2.31
2.09
1.76
1.44
1.22
1.15
1.15
1.14
1.05
0.90
0.72
0.57
0.44
0.29
0.05
-0.28
-0.72
-1.26
-1.87
-2.55
-3.23
-3.85
-4.28
-4.46
-4.32
-3.89
-3.22
-2.37
-1.40
-0.39
0.54
1.27
1.70
1.83
1.76
1.64
1.61
1.71
1.87
1.97
1.88
1.60
1.19
0.78
0.48
0.36
0.39
0.52
0.67
0.80
0.88
0.93
0.94
0.89
0.75
0.51
0.24
-0.02
-0.20
-0.30
-0.36
-0.46
-0.67
-1.00
-1.41
-1.79
-2.06
-2.19
-2.20
-2.15
-2.10
-2.10
-2.23
-2.53
-3.03
-3.70
-4.43
-5.02
-5.32
-5.22
-4.72
-3.95
-3.06
-2.15
-1.27
-0.40
0.45
1.24
1.85
2.22
2.34
2.27
2.13
2.00
1.88
1.73
1.50
1.21
0.96
0.85
0.97
1.30
1.72
2.09
2.26
2.18
1.89
1.50
1.12
0.87
0.79
0.88
1.07
1.27
1.38
1.34
1.12
0.76
0.32
-0.14
-0.61
-1.10
-1.66
-2.33
-3.08
-3.80
-4.42
-4.85
-5.13
-5.38
-5.70
-6.12
-6.54
-6.77
-6.63
-6.08
-5.20
-4.17
-3.13
-2.12
-1.09
0.01
1.16
2.24
3.09
3.65
3.96
4.11
4.19
4.17
3.98
3.56
2.99
2.42
2.06
2.05
2.35
2.81
3.25
3.51
3.53
3.34
3.01
2.62
2.22
1.89
1.68
1.62
1.68
1.77
1.80
1.66
1.30
0.70
-0.08
-0.94
-1.75
-2.38
-2.76
-2.86
-2.73
-2.51
-2.36
-2.39
-2.66
-3.10
-3.59
-4.01
-4.27
-4.32
-4.16
-3.80
-3.22
-2.44
-1.49
-0.47
0.47
1.19
1.66
1.92
2.11
2.36
2.72
3.15
3.54
3.77
3.81
3.72
3.58
3.47
3.41
3.35
3.27
3.15
2.98
2.79
2.56
2.28
1.93
1.55
1.19
0.96
0.91
1.06
1.32
1.54
1.58
1.35
0.85
0.20
-0.48
-1.08
-1.55
-1.91
-2.22
-2.51
-2.80
-3.07
-3.30
-3.49
-3.68
-3.89
-4.12
-4.29
-4.32
-4.11
-3.62
-2.85
-1.89
-0.83
0.21
1.19
2.08
2.91
3.66
4.30
4.76
4.94
4.80
4.36
3.76
3.17
2.73
2.51
2.45
2.45
2.41
2.30
2.19
2.11
2.11
2.13
2.11
2.02
1.83
1.60
1.35
1.09
0.79
0.43
0.01
-0.43
-0.80
-1.07
-1.24
-1.38
-1.55
-1.82
-2.20
-2.69
-3.22
-3.77
-4.25
-4.63
-4.87
-5.00
-5.09
-5.23
-5.52
-5.95
-6.46
-6.85
-6.91
-6.48
-5.55
-4.23
-2.73
-1.26
0.05
1.14
2.03
2.75
3.31
3.73
4.00
4.18
4.30
4.40
4.43
4.33
4.07
3.68
3.29
3.03
3.02
3.24
3.55
3.76
3.74
3.49
3.13
2.82
2.64
2.59
2.56
2.41
2.07
1.54
0.92
0.32
-0.20
-0.66
-1.10
-1.59
-2.11
-2.60
-3.01
-3.29
-3.46
-3.56
-3.61
-3.59
-3.46
-3.21
-2.89
-2.61
-2.52
-2.70
-3.15
-3.74
-4.26
-4.51
-4.35
-3.78
-2.91
-1.89
-0.84
0.13
1.03
1.85
2.59
3.20
3.63
3.82
3.82
3.69
3.55
3.45
3.37
3.29
3.17
3.02
2.90
2.88
2.97
3.11
3.20
3.18
3.05
2.89
2.80
2.84
2.99
3.12
3.13
2.94
2.54
1.99
1.39
0.83
0.36
0.01
-0.25
-0.47
-0.74
-1.15
-1.73
-2.47
-3.29
-4.07
-4.73
-5.23
-5.61
-5.93
-6.26
-6.61
-6.91
-7.02
-6.86
-6.38
-5.67
-4.85
-4.08
-3.42
-2.83
-2.18
-1.36
-0.35
0.79
1.88
2.76
3.31
3.55
3.53
3.37
3.15
2.95
2.79
2.69
2.66
2.75
2.95
3.27
3.65
3.99
4.21
4.22
4.01
3.62
3.13
2.64
2.23
1.94
1.78
1.72
1.71
1.64
1.45
1.10
0.65
0.24
0.00
0.00
0.16
0.34
0.35
0.10
-0.38
-0.99
-1.64
-2.26
-2.86
-3.45
-4.03
-4.55
-4.93
-5.13
-5.18
-5.15
-5.12
-5.10
-5.06
-4.94
-4.64
-4.13
-3.39
-2.47
-1.44
-0.38
0.66
1.64
2.52
3.23
3.70
3.91
3.84
3.57
3.24
3.01
2.96
3.10
3.34
3.55
3.66
3.68
3.72
3.86
4.11
4.37
4.46
4.26
3.73
2.97
2.16
1.50
1.06
0.84
0.74
0.67
0.60
0.56
0.59
0.67
0.69
0.54
0.12
-0.56
-1.36
-2.10
-2.64
-2.94
-3.08
-3.22
-3.49
-3.97
-4.63
-5.41
-6.21
-6.94
-7.52
-7.88
-7.96
-7.72
-7.14
-6.28
-5.24
-4.16
-3.17
-2.40
-1.89
-1.63
-1.55
-1.57
-1.61
-1.65
-1.66
-1.64
-1.60
-1.54
-1.47
-1.41
-1.37
-1.32
-1.19
-0.88
-0.29
0.63
1.86
3.29
4.74
5.99
6.80
7.02
6.62
5.72
4.58
3.51
2.78
2.55
2.81
3.41
4.14
4.81
5.31
5.57
5.57
5.27
4.64
3.66
2.35
0.84
-0.73
-2.24
-3.58
-4.72
-5.59
-6.10
-6.15
-5.70
-4.82
-3.68
-2.44
-1.28
-0.23
0.70
1.54
2.29
2.90
3.34
3.59
3.69
3.73
3.75
3.76
3.72
3.56
3.23
2.78
2.27
1.79
1.45
1.22
1.02
0.74
0.26
-0.43
-1.22
-1.96
-2.49
-2.75
-2.81
-2.75
-2.69
-2.61
-2.46
-2.12
-1.56
-0.85
-0.12
0.46
0.84
1.08
1.32
1.67
2.11
2.51
2.67
2.45
1.89
1.20
0.62
0.33
0.36
0.56
0.74
0.77
0.65
0.51
0.50
0.66
0.95
1.22
1.37
1.37
1.34
1.38
1.58
1.89
2.19
2.42
2.60
2.80
3.12
3.55
3.94
4.10
3.88
3.30
2.51
1.73
1.13
0.75
0.52
0.34
0.18
0.04
-0.01
0.05
0.14
0.14
-0.11
-0.64
-1.38
-2.13
-2.67
-2.91
-2.89
-2.79
-2.80
-3.05
-3.50
-4.05
-4.51
-4.76
-4.73
-4.41
-3.86
-3.14
-2.34
-1.52
-0.75
-0.03
0.64
1.23
1.68
1.87
1.73
1.31
0.73
0.19
-0.16
-0.30
-0.27
-0.14
0.08
0.45
1.04
1.83
2.73
3.53
4.05
4.20
4.01
3.59
3.10
2.67
2.37
2.25
2.28
2.45
2.69
2.93
3.03
2.91
2.51
1.89
1.16
0.44
-0.21
-0.82
-1.47
-2.25
-3.18
-4.14
-4.99
-5.61
-6.01
-6.28
-6.55
-6.87
-7.22
-7.46
-7.44
-7.13
-6.55
-5.80
-4.95
-4.01
-2.94
-1.69
-0.28
1.17
2.47
3.43
3.97
4.13
4.07
3.97
3.97
4.09
4.24
4.32
4.22
3.93
3.49
3.03
2.66
2.48
2.48
2.62
2.78
2.88
2.85
2.72
2.50
2.24
1.96
1.70
1.50
1.40
1.45
1.61
1.80
1.88
1.75
1.36
0.77
0.07
-0.64
-1.26
-1.74
-2.04
-2.11
-1.97
-1.69
-1.39
-1.23
-1.30
-1.62
-2.09
-2.58
-2.97
-3.21
-3.29
-3.25
-3.13
-2.92
-2.64
-2.28
-1.89
-1.55
-1.31
-1.22
-1.26
-1.38
-1.51
-1.62
-1.70
-1.78
-1.87
-1.95
-1.98
-1.88
-1.62
-1.21
-0.76
-0.37
-0.11
0.01
0.05
0.13
0.31
0.62
1.01
1.40
1.72
1.94
2.07
2.16
2.22
2.27
2.30
2.30
2.29
2.23
2.04
1.63
0.92
-0.06
-1.24
-2.41
-3.45
-4.25
-4.86
-5.39
-5.90
-6.42
-6.86
-7.15
-7.24
-7.16
-6.97
-6.71
-6.36
-5.85
-5.08
-4.08
-2.95
-1.83
-0.88
-0.11
0.51
1.11
1.81
2.66
3.61
4.50
5.18
5.48
5.35
4.89
4.26
3.70
3.35
3.22
3.22
3.21
3.08
2.82
2.50
2.14
1.78
1.41
1.03
0.69
0.47
0.41
0.46
0.51
0.41
0.10
-0.40
-0.91
-1.30
-1.47
-1.48
-1.44
-1.46
-1.58
-1.76
-1.96
-2.16
-2.36
-2.62
-2.92
-3.20
-3.36
-3.32
-3.10
-2.77
-2.45
-2.22
-2.04
-1.81
-1.42
-0.83
-0.12
0.58
1.18
1.66
2.08
2.52
3.00
3.49
3.92
4.21
4.34
4.33
4.19
3.93
3.55
3.07
2.55
2.10
1.80
1.67
1.65
1.65
1.62
1.56
1.52
1.51
1.49
1.37
1.09
0.65
0.15
-0.24
-0.40
-0.30
-0.03
0.26
0.39
0.25
-0.14
-0.69
-1.23
-1.63
-1.84
-1.91
-1.94
-2.05
-2.30
-2.66
-3.06
-3.42
-3.67
-3.80
-3.82
-3.75
-3.60
-3.37
-3.03
-2.54
-1.87
-1.03
-0.10
0.80
1.51
1.91
1.97
1.79
1.51
1.29
1.21
1.28
1.47
1.70
1.92
2.10
2.18
2.15
2.03
1.84
1.66
1.55
1.53
1.56
1.59
1.56
1.46
1.32
1.13
0.93
0.71
0.46
0.23
0.06
-0.02
0.03
0.18
0.40
0.59
0.68
0.60
0.32
-0.13
-0.71
-1.35
-1.96
-2.50
-2.95
-3.34
-3.70
-4.05
-4.35
-4.54
-4.55
-4.32
-3.87
-3.26
-2.60
-1.97
-1.40
-0.86
-0.28
0.35
1.01
1.57
1.92
1.97
1.75
1.34
0.90
0.55
0.38
0.40
0.56
0.80
1.04
1.24
1.34
1.32
1.20
1.02
0.80
0.57
0.29
-0.09
-0.61
-1.27
-2.01
-2.73
-3.40
-3.96
-4.39
-4.66
-4.75
-4.67
-4.52
-4.42
-4.50
-4.79
-5.20
-5.52
-5.54
-5.17
-4.44
-3.51
-2.56
-1.73
-1.13
-0.81
-0.80
-1.03
-1.34
-1.50
-1.26
-0.45
0.99
2.89
4.97
6.91
8.52
9.83
10.95
12.03
13.19
14.54
16.05
17.56
18.93
20.06
20.96
21.70
22.36
22.97
23.51
23.74
23.21
21.50
18.36
13.76
7.82
0.70
-7.64
-16.37
-24.01
-29.02
-30.44
-28.08
-22.41
-14.42
-5.41
3.14
10.01
14.69
17.19
18.01
17.96
17.86
18.17
18.79
18.98
17.90
14.97
10.75
6.71
4.70
6.08
11.24
19.16
27.57
33.94
36.52
35.22
31.41
27.09
24.10
23.82
26.83
32.60
39.63
45.47
47.26
41.93
26.62
-0.18
-36.22
-74.06
-103.91
-119.28
-120.50
-111.97
-98.69
-84.27
-70.55
-58.14
-47.45
-39.29
-34.46
-33.46
-34.82
-36.12
-35.50
-32.42
-27.74
-23.20
-21.91
-24.48
-31.10
-39.84
-47.92
-53.42
-55.90
-56.31
-56.64
-59.36
-66.81
-80.95
-100.06
-119.25
-132.05
-132.34
-116.53
-85.16
-42.36
8.53
55.10
86.75
100.15
99.15
90.92
81.10
71.74
62.45
52.10
39.73
26.99
16.49
9.84
7.40
9.29
12.56
14.93
15.13
12.59
8.76
5.83
5.37
8.46
14.95
23.84
34.56
46.80
60.12
74.65
90.76
103.57
110.60
111.22
106.92
100.86
95.69
91.65
86.67
77.35
61.03
38.39
12.90
-10.63
-27.87
-36.94
-38.68
-35.46
-29.80
-23.36
-16.29
-8.47
-0.36
6.93
11.87
13.24
10.81
5.53
-0.81
-6.01
-8.67
-8.62
-6.74
-4.45
-3.07
-3.18
-4.61
-6.64
-8.29
-8.89
-8.35
-7.07
-5.69
-4.81
-4.68
-5.22
-6.01
-6.57
-6.60
-6.13
-5.45
-4.89
-4.65
-4.63
-4.62
-4.34
-3.71
-2.87
-2.09
-1.66
-1.68
-2.07
-2.61
-3.06
-3.31
-3.39
-3.45
-3.64
-4.05
-4.65
-5.28
-5.76
-5.90
-5.65
-5.09
-4.44
-3.98
-3.93
-4.33
-5.06
-5.86
-6.46
-6.72
-6.65
-6.28
-5.65
-4.75
-3.53
-2.04
-0.42
1.10
2.29
3.08
3.53
3.76
3.91
4.01
4.00
3.81
3.42
2.85
2.21
1.59
1.06
0.66
0.42
0.33
0.40
0.57
0.74
0.80
0.65
0.26
-0.31
-0.93
-1.47
-1.82
-2.00
-2.07
-2.13
-2.28
-2.53
-2.87
-3.26
-3.71
-4.21
-4.76
-5.31
-5.76
-5.98
-5.90
-5.52
-4.89
-4.09
-3.22
-2.29
-1.32
-0.29
0.78
1.85
2.81
3.57
4.05
4.28
4.30
4.23
4.17
4.14
4.11
3.98
3.65
3.11
2.45
1.79
1.23
0.83
0.56
0.36
0.24
0.23
0.37
0.63
0.88
0.95
0.68
-0.02
-1.05
-2.24
-3.38
-4.31
-4.96
-5.37
-5.66
-5.94
-6.32
-6.84
-7.48
-8.10
-8.57
-8.77
-8.69
-8.39
-7.97
-7.49
-6.95
-6.28
-5.43
-4.45
-3.45
-2.59
-1.96
-1.53
-1.17
-0.76
-0.26
0.29
0.89
1.59
2.58
4.04
6.02
8.31
10.47
12.04
12.68
12.39
11.42
10.19
9.05
8.15
7.45
6.80
6.09
5.26
4.38
3.52
2.76
2.15
1.71
1.42
1.23
1.05
0.78
0.35
-0.31
-1.17
-2.17
-3.21
-4.18
-5.00
-5.59
-5.95
-6.07
-5.97
-5.66
-5.17
-4.51
-3.71
-2.84
-1.97
-1.20
-0.58
-0.17
0.05
0.11
0.05
-0.07
-0.15
-0.14
-0.02
0.17
0.33
0.35
0.15
-0.26
-0.76
-1.19
-1.40
-1.26
-0.74
0.14
1.32
2.71
4.22
5.68
6.90
7.65
7.74
7.11
5.84
4.17
2.38
0.73
-0.63
-1.66
-2.41
-2.92
-3.24
-3.42
-3.54
-3.69
-3.97
-4.39
-4.88
-5.27
-5.35
-4.96
-4.02
-2.61
-0.92
0.79
2.33
3.55
4.45
5.04
5.35
5.40
5.16
4.64
3.89
3.09
2.40
2.00
1.96
2.22
2.62
2.90
2.88
2.46
1.76
1.00
0.45
0.24
0.30
0.42
0.33
-0.06
-0.67
-1.26
-1.61
-1.63
-1.44
-1.26
-1.29
-1.59
-2.06
-2.53
-2.86
-3.00
-3.01
-3.02
-3.13
-3.43
-3.95
-4.65
-5.40
-6.02
-6.31
-6.14
-5.52
-4.53
-3.34
-2.11
-0.92
0.14
1.06
1.81
2.37
2.74
2.99
3.20
3.46
3.82
4.23
4.57
4.71
4.56
4.14
3.54
2.91
2.37
1.98
1.74
1.60
1.52
1.49
1.53
1.67
1.90
2.18
2.45
2.66
2.79
2.80
2.70
2.48
2.17
1.84
1.59
1.46
1.42
1.44
1.46
1.48
1.49
1.51
1.56
1.64
1.75
1.93
2.32
3.11
4.48
6.40
8.71
11.13
13.34
15.00
15.88
16.07
15.87
15.73
15.96
16.60
17.34
17.57
16.55
13.74
9.07
3.01
-3.70
-10.46
-17.07
-23.53
-29.49
-34.63
-38.98
-42.71
-45.68
-47.28
-46.79
-43.75
-38.06
-29.96
-20.15
-9.95
-1.31
3.58
3.12
-2.72
-11.91
-20.91
-26.20
-25.97
-20.80
-12.90
-4.74
2.26
8.01
13.04
17.50
20.71
21.63
19.74
15.80
11.58
8.93
8.76
10.69
13.36
15.30
15.77
14.64
12.53
10.26
8.46
7.26
6.45
5.70
4.84
3.94
3.18
2.80
3.03
4.11
6.22
9.37
13.33
17.57
21.28
23.51
23.49
20.99
16.38
10.61
4.77
-0.21
-3.79
-5.94
-7.09
-7.88
-8.56
-8.86
-7.90
-4.81
0.74
8.39
17.10
25.67
32.82
37.82
40.54
41.52
41.16
39.40
35.91
30.46
23.32
15.19
7.26
0.22
-4.11
-4.32
-0.53
5.73
12.85
20.14
26.27
32.26
38.66
45.41
51.73
56.35
58.85
58.78
56.26
51.91
46.95
42.28
38.45
35.16
31.52
26.67
20.14
12.03
2.61
-7.98
-20.28
-35.03
-52.70
-72.96
-94.50
-115.44
-133.76
-147.80
-156.19
-158.08
-153.02
-141.34
-124.39
-104.45
-84.25
-65.94
-50.47
-37.51
-26.28
-16.31
-8.03
-2.54
-0.74
-2.71
-7.21
-12.16
-15.26
-14.92
-10.80
-3.91
3.57
8.79
8.95
2.34
-10.69
-27.28
-42.60
-51.32
-49.73
-37.23
-16.66
6.96
28.49
44.61
54.60
59.82
62.32
63.53
63.51
61.29
55.61
45.89
32.78
18.07
4.13
-6.89
-13.76
-16.72
-17.00
-16.23
-15.59
-15.30
-14.85
-13.47
-10.94
-7.69
-4.67
-2.76
-2.31
-3.06
-4.34
-5.43
-5.84
-5.41
-4.24
-2.51
-0.37
2.08
4.74
7.47
10.11
12.51
14.51
15.96
16.74
16.74
15.98
14.59
12.89
11.28
10.13
9.61
9.66
9.99
10.26
10.21
9.81
9.26
8.83
8.77
9.11
9.66
10.08
10.02
9.33
8.09
6.59
5.23
4.29
3.79
3.45
2.88
1.81
0.26
-1.38
-2.50
-2.57
-1.44
0.60
2.90
4.83
6.06
6.71
7.25
8.18
9.76
11.78
13.77
15.28
16.16
16.63
17.11
17.87
18.92
19.99
20.77
21.13
21.15
20.95
20.51
19.49
17.39
13.89
9.13
3.78
-1.32
-5.54
-8.75
-11.32
-13.79
-16.55
-19.65
-22.88
-26.03
-29.07
-32.10
-35.14
-37.90
-39.76
-40.12
-38.74
-36.06
-32.94
-30.30
-28.52
-27.30
-25.83
-23.30
-19.34
-14.25
-8.74
-3.62
0.61
3.81
6.15
7.88
9.17
10.10
10.69
11.01
11.00
10.69
10.30
10.14
10.46
11.31
12.61
14.14
15.64
16.64
16.79
16.10
14.97
14.00
13.73
14.49
16.35
18.98
21.45
22.90
23.15
22.66
22.19
22.39
23.74
26.46
30.44
34.05
35.85
35.67
34.73
34.50
36.02
39.69
45.31
51.90
55.54
53.11
44.66
33.47
23.53
17.74
17.41
22.67
32.34
40.77
43.23
38.97
30.51
19.56
5.43
-14.06
-40.33
-73.71
-118.13
-175.57
-243.56
-316.40
-389.07
-458.02
-518.97
-565.01
-557.30
-475.21
-336.05
-184.55
-58.39
27.63
76.73
100.58
114.93
129.05
141.00
146.99
147.48
147.77
153.50
167.73
185.18
200.89
210.14
206.62
187.96
157.93
124.30
93.67
68.74
49.16
34.39
23.90
15.73
9.06
5.12
6.04
12.52
23.14
35.34
47.58
58.98
68.36
75.16
79.70
82.74
84.51
84.57
82.30
77.87
71.80
64.46
56.32
48.06
40.47
34.14
29.38
26.24
24.67
24.28
24.37
24.05
22.60
19.62
15.27
10.18
5.19
1.06
-1.82
-3.66
-5.05
-6.71
-9.28
-13.03
-17.89
-23.48
-29.22
-34.41
-38.46
-40.96
-41.81
-41.25
-39.69
-37.55
-35.06
-32.22
-28.87
-24.94
-20.56
-16.08
-11.99
-8.72
-6.52
-5.38
-5.08
-5.27
-5.63
-5.94
-6.18
-6.44
-6.86
-7.45
-8.08
-8.49
-8.43
-7.87
-7.08
-6.49
-6.55
-7.43
-9.00
-10.87
-12.62
-14.00
-14.91
-15.41
-15.49
-15.08
-14.02
-12.31
-10.15
-7.89
-5.82
-3.99
-2.10
0.32
3.59
7.68
12.11
16.16
19.16
20.74
20.91
19.93
18.13
15.76
13.04
10.18
7.46
5.22
3.69
2.91
2.70
2.71
2.62
2.20
1.48
0.62
-0.19
-0.83
-1.33
-1.77
-2.27
-2.82
-3.34
-3.65
-3.65
-3.32
-2.82
-2.37
-2.20
-2.43
-3.06
-3.92
-4.80
-5.49
-5.81
-5.71
-5.25
-4.52
-3.66
-2.77
-1.96
-1.21
-0.49
0.27
1.17
2.28
3.62
5.14
6.71
8.21
9.58
10.82
12.00
13.21
14.49
15.78
17.01
18.11
19.06
19.92
20.73
21.52
22.27
22.98
23.69
24.53
25.47
26.61
28.13
30.14
32.52
34.87
36.73
37.87
38.40
38.62
39.23
41.14
44.98
50.77
57.76
64.86
71.06
75.80
78.51
79.47
79.48
79.46
79.98
81.01
82.54
84.64
87.14
87.84
84.75
76.93
64.61
49.14
32.03
15.48
1.52
-8.64
-17.41
-25.48
-30.89
-31.65
-28.45
-27.16
-34.49
-54.76
-87.48
-132.01
-181.89
-227.03
-259.30
-275.79
-281.40
-282.63
-285.88
-296.49
-324.23
-371.36
-429.44
-483.25
-517.04
-523.39
-501.04
-454.90
-356.69
-211.00
-51.06
88.22
186.70
261.44
322.99
374.81
414.75
440.50
446.28
434.19
414.55
399.16
394.97
398.22
401.66
398.26
384.16
353.42
307.61
255.86
208.71
172.54
145.69
124.54
106.03
88.70
65.98
36.08
3.76
-23.71
-41.91
-52.52
-59.67
-67.96
-81.11
-108.17
-151.61
-204.80
-256.78
-299.76
-332.62
-358.03
-379.95
-402.06
-435.03
-483.73
-543.34
-602.97
-652.07
-683.15
-690.96
-672.87
-583.27
-416.57
-213.04
-27.78
109.35
198.52
253.34
287.36
308.81
321.12
318.15
298.39
269.29
242.43
225.54
219.73
221.69
226.40
229.63
223.40
205.17
180.13
156.96
141.62
135.27
135.88
140.39
146.00
147.72
141.94
129.29
112.62
94.14
75.14
57.05
41.80
31.15
23.83
17.73
11.53
4.77
-2.55
-9.84
-16.03
-20.02
-21.40
-21.32
-21.18
-21.63
-22.38
-22.77
-22.20
-20.53
-18.29
-16.46
-16.09
-17.58
-20.58
-24.13
-27.10
-28.74
-29.07
-28.75
-28.54
-28.75
-28.97
-28.37
-26.18
-22.17
-16.75
-10.80
-5.27
-0.78
2.48
4.72
6.37
8.09
10.69
15.13
22.17
31.30
40.72
47.77
50.42
48.27
42.47
34.88
27.25
20.56
14.91
9.89
4.99
0.08
-4.59
-8.60
-11.64
-13.66
-15.14
-16.42
-17.58
-18.39
-18.41
-17.25
-14.96
-11.98
-9.04
-6.81
-5.60
-5.30
-5.39
-5.22
-4.27
-2.35
0.43
3.90
7.62
11.08
13.80
15.35
15.58
14.62
12.84
10.80
9.00
7.71
6.94
6.44
5.86
4.94
3.52
1.60
-0.70
-3.20
-5.73
-8.10
-10.13
-11.70
-12.72
-13.19
-13.13
-12.63
-11.78
-10.67
-9.43
-8.17
-7.05
-6.16
-5.57
-5.28
-5.25
-5.42
-5.68
-5.88
-5.86
-5.46
-4.61
-3.35
-1.84
-0.31
1.03
2.03
2.66
2.97
3.02
2.87
2.59
2.22
1.82
1.45
1.15
0.95
0.81
0.71
0.63
0.55
0.50
0.50
0.56
0.65
0.73
0.72
0.57
0.27
-0.10
-0.42
-0.60
-0.61
-0.54
-0.58
-0.96
-1.76
-2.94
-4.27
-5.49
-6.35
-6.70
-6.56
-5.98
-5.06
-3.85
-2.43
-0.87
0.66
1.99
2.95
3.52
3.79
3.93
4.12
4.43
4.80
5.08
5.09
4.74
4.05
3.17
2.25
1.44
0.80
0.28
-0.19
-0.68
-1.23
-1.76
-2.19
-2.42
-2.37
-2.04
-1.44
-0.64
0.24
1.06
1.64
1.87
1.74
1.32
0.78
0.27
-0.12
-0.38
-0.58
-0.83
-1.18
-1.65
-2.20
-2.78
-3.35
-3.82
-4.17
-4.33
-4.27
-4.01
-3.57
-2.97
-2.24
-1.43
-0.65
-0.03
0.32
0.38
0.21
-0.05
-0.26
-0.30
-0.16
0.13
0.54
1.00
1.51
2.01
2.48
2.86
3.13
3.27
3.30
3.23
3.04
2.68
2.15
1.48
0.74
0.04
-0.56
-1.04
-1.44
-1.83
-2.24
-2.68
-3.10
-3.43
-3.69
-3.91
-4.15
-4.50
-4.95
-5.42
-5.81
-6.00
-5.95
-5.65
-5.16
-4.55
-3.86
-3.10
-2.24
-1.25
-0.14
1.04
2.23
3.36
4.34
5.15
5.75
6.13
6.29
6.25
6.05
5.76
5.45
5.19
4.99
4.85
4.71
4.49
4.17
3.74
3.21
2.65
2.09
1.56
1.06
0.56
0.05
-0.48
-1.00
-1.47
-1.84
-2.13
-2.34
-2.54
-2.78
-3.11
-3.51
-3.91
-4.18
-4.25
-4.05
-3.61
-2.98
-2.20
-1.36
-0.50
0.30
0.96
1.44
1.75
1.91
1.97
1.95
1.84
1.64
1.43
1.33
1.48
1.90
2.48
2.99
3.20
3.06
2.69
2.32
2.16
2.27
2.55
2.84
2.99
2.95
2.77
2.54
2.33
2.16
1.99
1.77
1.47
1.08
0.61
0.10
-0.39
-0.85
-1.26
-1.64
-2.00
-2.33
-2.60
-2.84
-3.08
-3.35
-3.69
-4.03
-4.25
-4.22
-3.82
-3.08
-2.05
-0.88
0.29
1.34
2.14
2.65
2.84
2.75
2.49
2.18
1.92
1.73
1.61
1.49
1.36
1.22
1.17
1.26
1.56
2.03
2.55
2.95
3.11
2.96
2.57
2.11
1.72
1.53
1.52
1.58
1.59
1.49
1.28
0.99
0.65
0.23
-0.25
-0.78
-1.26
-1.61
-1.75
-1.71
-1.60
-1.55
-1.66
-1.94
-2.35
-2.81
-3.25
-3.65
-3.98
-4.21
-4.28
-4.12
-3.69
-2.97
-2.01
-0.92
0.18
1.16
1.89
2.31
2.43
2.32
2.08
1.80
1.52
1.24
0.92
0.58
0.32
0.27
0.51
1.02
1.64
2.14
2.34
2.18
1.77
1.33
1.03
0.96
1.10
1.31
1.47
1.48
1.32
1.02
0.62
0.17
-0.29
-0.76
-1.23
-1.69
-2.13
-2.53
-2.88
-3.24
-3.65
-4.17
-4.83
-5.54
-6.18
-6.64
-6.82
-6.73
-6.41
-5.99
-5.54
-5.13
-4.79
-4.48
-4.12
-3.63
-2.97
-2.13
-1.13
-0.04
1.12
2.35
3.64
4.94
6.13
7.06
7.57
7.63
7.28
6.66
5.95
5.26
4.71
4.33
4.16
4.20
4.40
4.63
4.76
4.68
4.36
3.85
3.25
2.71
2.31
2.05
1.85
1.59
1.19
0.64
0.04
-0.46
-0.77
-0.88
-0.91
-1.00
-1.29
-1.80
-2.44
-3.08
-3.56
-3.81
-3.77
-3.48
-3.00
-2.40
-1.79
-1.24
-0.77
-0.36
0.05
0.48
0.90
1.24
1.43
1.48
1.45
1.43
1.47
1.56
1.64
1.61
1.47
1.25
1.07
1.04
1.24
1.62
2.06
2.41
2.58
2.53
2.34
2.08
1.83
1.62
1.42
1.18
0.90
0.57
0.22
-0.12
-0.41
-0.65
-0.84
-1.02
-1.22
-1.47
-1.76
-2.06
-2.29
-2.42
-2.50
-2.63
-2.91
-3.35
-3.85
-4.22
-4.24
-3.83
-3.04
-2.06
-1.07
-0.19
0.58
1.32
2.09
2.83
3.36
3.53
3.29
2.76
2.19
1.83
1.79
1.99
2.25
2.36
2.23
1.91
1.54
1.29
1.25
1.42
1.70
1.97
2.12
2.10
1.90
1.58
1.21
0.88
0.59
0.33
0.06
-0.26
-0.66
-1.12
-1.58
-1.95
-2.14
-2.09
-1.86
-1.52
-1.23
-1.14
-1.33
-1.81
-2.49
-3.21
-3.80
-4.10
-4.02
-3.56
-2.83
-1.97
-1.15
-0.46
0.09
0.54
0.95
1.35
1.72
2.01
2.16
2.15
2.02
1.81
1.58
1.41
1.30
1.24
1.19
1.14
1.11
1.16
1.33
1.63
1.98
2.24
2.30
2.11
1.72
1.24
0.81
0.48
0.22
0.00
-0.25
-0.53
-0.86
-1.23
-1.62
-2.04
-2.42
-2.68
-2.77
-2.69
-2.56
-2.54
-2.78
-3.29
-3.98
-4.62
-5.01
-5.00
-4.58
-3.82
-2.83
-1.76
-0.72
0.20
0.94
1.48
1.82
1.99
2.04
2.02
1.99
2.01
2.10
2.29
2.52
2.70
2.72
2.51
2.08
1.51
0.96
0.53
0.31
0.27
0.40
0.65
0.98
1.32
1.61
1.76
1.73
1.53
1.22
0.90
0.62
0.38
0.11
-0.26
-0.76
-1.36
-1.95
-2.45
-2.80
-3.02
-3.18
-3.35
-3.60
-3.92
-4.26
-4.53
-4.64
-4.53
-4.15
-3.51
-2.66
-1.70
-0.71
0.18
0.91
1.45
1.83
2.10
2.31
2.48
2.59
2.61
2.54
2.42
2.26
2.11
1.96
1.79
1.61
1.48
1.45
1.57
1.80
2.03
2.14
2.02
1.70
1.25
0.78
0.41
0.18
0.08
0.08
0.13
0.20
0.22
0.13
-0.14
-0.60
-1.21
-1.82
-2.28
-2.49
-2.42
-2.20
-1.97
-1.94
-2.20
-2.74
-3.46
-4.16
-4.66
-4.84
-4.64
-4.12
-3.41
-2.64
-1.91
-1.25
-0.67
-0.13
0.40
0.91
1.41
1.89
2.34
2.70
2.94
3.01
2.88
2.63
2.35
2.15
2.08
2.10
2.14
2.16
2.16
2.18
2.24
2.31
2.31
2.16
1.83
1.39
0.95
0.62
0.40
0.20
-0.08
-0.48
-0.96
-1.42
-1.74
-1.88
-1.87
-1.79
-1.70
-1.64
-1.62
-1.64
-1.74
-1.98
-2.39
-2.98
-3.69
-4.44
-5.15
-5.78
-6.31
-6.76
-7.09
-7.26
-7.18
-6.78
-6.08
-5.16
-4.15
-3.17
-2.23
-1.28
-0.22
1.00
2.31
3.58
4.60
5.27
5.59
5.71
5.80
6.01
6.35
6.69
6.91
6.85
6.56
6.14
5.79
5.62
5.65
5.73
5.65
5.31
4.69
3.95
3.29
2.86
2.65
2.57
2.47
2.24
1.83
1.28
0.65
0.01
-0.56
-0.99
-1.25
-1.35
-1.37
-1.40
-1.55
-1.86
-2.31
-2.84
-3.35
-3.79
-4.08
-4.17
-4.02
-3.62
-2.99
-2.22
-1.38
-0.57
0.16
0.77
1.24
1.54
1.68
1.72
1.72
1.76
1.87
2.02
2.13
2.16
2.10
1.98
1.83
1.69
1.56
1.47
1.45
1.54
1.76
2.04
2.29
2.38
2.26
1.93
1.50
1.04
0.61
0.21
-0.17
-0.55
-0.91
-1.23
-1.53
-1.81
-2.07
-2.30
-2.46
-2.56
-2.60
-2.64
-2.73
-2.87
-3.03
-3.17
-3.27
-3.34
-3.43
-3.52
-3.60
-3.55
-3.28
-2.80
-2.17
-1.51
-0.96
-0.55
-0.21
0.17
0.71
1.42
2.22
2.93
3.38
3.50
3.32
2.99
2.64
2.40
2.31
2.33
2.39
2.45
2.50
2.54
2.60
2.65
2.64
2.51
2.22
1.78
1.28
0.82
0.49
0.31
0.20
0.07
-0.13
-0.39
-0.65
-0.87
-1.06
-1.29
-1.57
-1.89
-2.14
-2.22
-2.16
-2.04
-2.05
-2.34
-2.92
-3.66
-4.34
-4.76
-4.81
-4.50
-3.94
-3.25
-2.53
-1.85
-1.22
-0.63
-0.06
0.49
1.02
1.50
1.92
2.25
2.47
2.52
2.37
2.04
1.60
1.18
0.90
0.84
0.95
1.18
1.43
1.65
1.82
1.96
2.07
2.15
2.18
2.15
2.10
2.04
1.98
1.93
1.87
1.76
1.61
1.42
1.19
0.93
0.62
0.28
-0.09
-0.48
-0.89
-1.32
-1.78
-2.24
-2.65
-2.99
-3.25
-3.46
-3.69
-3.99
-4.39
-4.83
-5.15
-5.17
-4.78
-3.97
-2.88
-1.73
-0.72
0.04
0.57
0.94
1.26
1.58
1.90
2.18
2.39
2.49
2.46
2.31
2.05
1.75
1.50
1.38
1.43
1.65
1.99
2.40
2.83
3.20
3.42
3.37
2.95
2.16
1.16
0.19
-0.48
-0.69
-0.47
-0.01
0.42
0.61
0.45
-0.01
-0.61
-1.21
-1.68
-1.95
-2.04
-1.99
-1.89
-1.87
-2.02
-2.37
-2.90
-3.49
-4.01
-4.31
-4.30
-3.93
-3.25
-2.33
-1.30
-0.28
0.59
1.22
1.58
1.70
1.69
1.70
1.81
2.00
2.18
2.25
2.14
1.88
1.54
1.20
0.91
0.68
0.52
0.48
0.56
0.77
1.05
1.30
1.41
1.31
1.00
0.55
0.07
-0.35
-0.64
-0.81
-0.94
-1.12
-1.43
-1.89
-2.46
-3.06
-3.59
-3.98
-4.19
-4.21
-4.09
-3.92
-3.82
-3.87
-4.09
-4.44
-4.74
-4.84
-4.65
-4.19
-3.52
-2.75
-1.93
-1.11
-0.30
0.42
1.00
1.40
1.64
1.74
1.76
1.73
1.66
1.58
1.52
1.55
1.65
1.79
1.90
1.94
1.97
2.11
2.44
2.94
3.52
4.05
4.42
4.63
4.71
4.70
4.58
4.30
3.82
3.16
2.40
1.63
0.92
0.25
-0.42
-1.13
-1.91
-2.76
-3.64
-4.52
-5.36
-6.10
-6.67
-6.95
-6.85
-6.34
-5.46
-4.32
-3.06
-1.84
-0.81
-0.02
0.52
0.87
1.12
1.34
1.59
1.89
2.23
2.57
2.90
3.22
3.52
3.79
3.99
4.08
4.05
3.89
3.67
3.43
3.25
3.13
3.07
3.07
3.12
3.20
3.28
3.27
3.08
2.65
1.98
1.17
0.35
-0.40
-1.05
-1.63
-2.17
-2.67
-3.08
-3.40
-3.67
-3.96
-4.34
-4.78
-5.13
-5.16
-4.71
-3.77
-2.49
-1.13
0.09
1.03
1.70
2.15
2.45
2.65
2.73
2.68
2.56
2.40
2.28
2.23
2.29
2.40
2.51
2.58
2.58
2.52
2.48
2.52
2.64
2.76
2.71
2.37
1.70
0.82
-0.09
-0.79
-1.18
-1.30
-1.30
-1.38
-1.64
-2.10
-2.70
-3.32
-3.86
-4.26
-4.50
-4.59
-4.55
-4.43
-4.24
-3.99
-3.67
-3.26
-2.74
-2.10
-1.36
-0.54
0.33
1.15
1.85
2.30
2.44
2.24
1.78
1.19
0.64
0.23
0.04
0.05
0.20
0.40
0.54
0.54
0.35
-0.02
-0.52
-1.02
-1.43
-1.71
-1.90
-2.12
-2.46
-2.97
-3.58
-4.17
-4.66
-5.02
-5.35
-5.84
-6.63
-7.79
-9.22
-10.73
-12.08
-13.07
-13.61
-13.71
-13.50
-13.08
-12.52
-11.82
-10.91
-9.66
-7.97
-5.74
-2.97
0.29
3.85
7.42
10.68
13.32
15.18
16.25
16.66
16.52
15.91
14.81
13.17
11.02
8.49
5.76
3.07
0.63
-1.36
-2.72
-3.20
-2.64
-0.99
1.57
4.69
8.00
11.27
14.51
17.98
21.96
26.53
31.43
36.02
39.50
41.24
40.85
38.39
34.20
28.84
22.86
16.74
10.78
5.19
0.22
-3.94
-7.06
-8.95
-9.43
-8.40
-5.96
-2.42
1.71
5.95
9.69
12.32
13.41
12.89
11.18
9.01
7.03
5.51
4.23
2.40
-0.93
-6.44
-14.22
-23.80
-34.71
-46.84
-60.31
-73.69
-84.40
-89.92
-89.47
-84.47
-76.91
-68.11
-58.21
-46.58
-32.67
-17.00
-1.39
12.86
24.57
33.50
39.96
44.53
47.57
49.16
49.04
47.03
43.43
37.69
30.68
23.61
17.52
13.00
10.14
8.61
7.97
7.99
8.58
10.02
12.32
15.04
17.35
18.34
17.36
14.35
9.90
4.86
0.23
-3.54
-6.55
-9.32
-12.33
-15.74
-19.28
-22.42
-24.70
-25.83
-25.89
-25.18
-24.05
-22.71
-21.24
-19.64
-17.92
-16.13
-14.29
-12.46
-10.72
-9.16
-7.78
-6.57
-5.45
-4.32
-3.17
-2.00
-0.84
0.30
1.48
2.82
4.39
6.18
8.06
9.82
11.24
12.09
12.25
11.64
10.33
8.47
6.37
4.34
2.70
1.61
1.09
1.02
1.21
1.48
1.70
1.81
1.80
1.70
1.54
1.37
1.28
1.35
1.64
2.12
2.67
3.13
3.35
3.32
3.11
2.87
2.70
2.60
2.46
2.16
1.66
1.07
0.55
0.27
0.26
0.42
0.58
0.57
0.37
0.06
-0.21
-0.30
-0.21
-0.03
0.04
-0.14
-0.60
-1.29
-2.06
-2.76
-3.29
-3.60
-3.69
-3.55
-3.19
-2.60
-1.82
-0.93
-0.04
0.74
1.35
1.82
2.21
2.59
3.00
3.41
3.73
3.90
3.89
3.73
3.52
3.33
3.21
3.15
3.11
3.07
3.02
3.00
3.01
3.05
3.07
3.02
2.85
2.57
2.25
1.95
1.79
1.82
2.06
2.47
2.89
3.13
3.00
2.43
1.53
0.50
-0.38
-0.94
-1.16
-1.18
-1.23
-1.45
-1.88
-2.41
-2.90
-3.22
-3.36
-3.38
-3.37
-3.43
-3.63
-3.98
-4.41
-4.81
-5.06
-5.06
-4.78
-4.28
-3.68
-3.08
-2.53
-1.99
-1.40
-0.71
0.06
0.86
1.61
2.24
2.70
2.92
2.91
2.71
2.44
2.23
2.21
2.41
2.75
3.14
3.47
3.71
3.88
4.05
4.23
4.42
4.59
4.68
4.64
4.43
4.07
3.61
3.15
2.81
2.65
2.65
2.68
2.59
2.30
1.86
1.37
0.97
0.74
0.61
0.46
0.17
-0.24
-0.70
-1.05
-1.20
-1.16
-1.06
-1.09
-1.37
-1.91
-2.60
-3.27
-3.81
-4.17
-4.41
-4.62
-4.81
-4.91
-4.84
-4.50
-3.90
-3.14
-2.35
-1.64
-1.00
-0.37
0.34
1.13
1.94
2.64
3.10
3.29
3.26
3.09
2.89
2.68
2.46
2.22
1.97
1.78
1.68
1.70
1.79
1.88
1.89
1.79
1.61
1.43
1.29
1.22
1.20
1.16
1.05
0.83
0.52
0.18
-0.15
-0.46
-0.80
-1.21
-1.70
-2.18
-2.52
-2.62
-2.45
-2.13
-1.86
-1.80
-1.99
-2.34
-2.70
-2.94
-3.06
-3.12
-3.22
-3.40
-3.59
-3.68
-3.56
-3.22
-2.71
-2.14
-1.62
-1.19
-0.84
-0.51
-0.18
0.18
0.51
0.79
0.98
1.12
1.29
1.54
1.88
2.21
2.42
2.42
2.21
1.87
1.56
1.36
1.29
1.28
1.29
1.29
1.30
1.37
1.48
1.58
1.61
1.54
1.39
1.17
0.94
0.71
0.53
0.44
0.49
0.66
0.88
1.01
0.93
0.57
-0.02
-0.73
-1.45
-2.12
-2.72
-3.24
-3.65
-3.91
-4.01
-4.04
-4.08
-4.23
-4.54
-4.95
-5.33
-5.51
-5.37
-4.90
-4.17
-3.33
-2.52
-1.84
-1.26
-0.72
-0.14
0.46
0.99
1.33
1.44
1.39
1.29
1.28
1.37
1.53
1.67
1.74
1.76
1.80
1.89
2.01
2.10
2.08
1.96
1.79
1.66
1.61
1.67
1.81
2.02
2.25
2.48
2.63
2.61
2.36
1.87
1.22
0.56
0.05
-0.19
-0.16
0.07
0.34
0.47
0.37
-0.01
-0.63
-1.36
-2.04
-2.52
-2.72
-2.64
-2.39
-2.13
-2.03
-2.20
-2.65
-3.29
-3.98
-4.54
-4.85
-4.84
-4.50
-3.86
-2.99
-2.02
-1.07
-0.27
0.32
0.74
1.10
1.53
2.06
2.63
3.05
3.18
2.94
2.45
1.91
1.58
1.64
2.11
2.87
3.66
4.21
4.34
4.02
3.36
2.56
1.81
1.24
0.90
0.75
0.72
0.72
0.69
0.58
0.45
0.40
0.58
1.15
2.09
3.26
4.38
5.11
5.21
4.62
3.45
1.93
0.30
-1.25
-2.62
-3.78
-4.75
-5.48
-5.90
-5.93
-5.55
-4.83
-3.94
-3.07
-2.41
-2.02
-1.84
-1.76
-1.62
-1.35
-0.92
-0.39
0.18
0.71
1.15
1.49
1.73
1.91
2.08
2.28
2.50
2.70
2.82
2.78
2.57
2.24
1.93
1.79
1.88
2.15
2.42
2.50
2.30
1.85
1.34
0.94
0.74
0.70
0.67
0.54
0.25
-0.14
-0.53
-0.86
-1.13
-1.40
-1.71
-2.03
-2.30
-2.39
-2.28
-2.00
-1.67
-1.43
-1.38
-1.54
-1.85
-2.22
-2.57
-2.86
-3.06
-3.20
-3.30
-3.39
-3.50
-3.63
-3.74
-3.75
-3.61
-3.29
-2.85
-2.41
-2.06
-1.84
-1.66
-1.42
-0.98
-0.32
0.51
1.35
2.06
2.52
2.65
2.48
2.08
1.57
1.12
0.85
0.86
1.11
1.52
1.97
2.34
2.60
2.75
2.82
2.81
2.76
2.68
2.60
2.55
2.53
2.51
2.45
2.31
2.07
1.77
1.46
1.19
1.00
0.85
0.69
0.45
0.10
-0.37
-0.89
-1.39
-1.77
-2.01
-2.13
-2.19
-2.28
-2.46
-2.71
-2.97
-3.20
-3.40
-3.62
-3.94
-4.37
-4.87
-5.31
-5.55
-5.46
-4.99
-4.18
-3.15
-2.08
-1.10
-0.34
0.19
0.55
0.85
1.19
1.61
2.06
2.42
2.64
2.71
2.72
2.75
2.84
2.94
2.99
2.97
2.93
2.97
3.15
3.46
3.80
4.03
4.08
3.95
3.69
3.39
3.08
2.80
2.55
2.39
2.35
2.44
2.57
2.58
2.35
1.82
1.12
0.43
-0.04
-0.21
-0.15
-0.02
-0.01
-0.24
-0.66
-1.19
-1.72
-2.18
-2.57
-2.92
-3.24
-3.52
-3.69
-3.74
-3.68
-3.61
-3.61
-3.72
-3.90
-4.02
-3.95
-3.62
-3.03
-2.26
-1.44
-0.68
-0.03
0.51
0.96
1.36
1.74
2.08
2.34
2.47
2.44
2.27
2.03
1.86
1.83
1.95
2.17
2.36
2.45
2.43
2.38
2.37
2.44
2.54
2.57
2.43
2.09
1.57
0.95
0.34
-0.20
-0.61
-0.88
-1.02
-1.06
-1.07
-1.08
-1.13
-1.24
-1.39
-1.58
-1.78
-1.95
-2.10
-2.21
-2.30
-2.41
-2.57
-2.81
-3.15
-3.57
-4.05
-4.54
-4.98
-5.29
-5.33
-5.02
-4.32
-3.28
-2.04
-0.75
0.46
1.47
2.23
2.76
3.09
3.26
3.33
3.30
3.14
2.88
2.53
2.21
2.05
2.16
2.55
3.09
3.58
3.86
3.87
3.66
3.36
3.05
2.77
2.49
2.18
1.85
1.49
1.14
0.80
0.45
0.07
-0.34
-0.78
-1.19
-1.55
-1.86
-2.14
-2.40
-2.68
-2.97
-3.21
-3.38
-3.44
-3.42
-3.39
-3.43
-3.59
-3.88
-4.20
-4.47
-4.66
-4.76
-4.82
-4.85
-4.78
-4.49
-3.92
-3.08
-2.13
-1.29
-0.66
-0.22
0.14
0.60
1.17
1.78
2.27
2.53
2.55
2.44
2.33
2.30
2.34
2.41
2.46
2.51
2.58
2.69
2.82
2.91
2.90
2.79
2.62
2.46
2.37
2.36
2.41
2.46
2.45
2.35
2.18
1.95
1.71
1.45
1.15
0.77
0.32
-0.15
-0.58
-0.88
-1.00
-0.94
-0.77
-0.58
-0.47
-0.49
-0.64
-0.90
-1.23
-1.61
-2.04
-2.52
-3.06
-3.63
-4.15
-4.55
-4.74
-4.68
-4.34
-3.71
-2.86
-1.84
-0.78
0.23
1.12
1.84
2.42
2.89
3.26
3.52
3.60
3.45
3.07
2.52
1.92
1.42
1.12
1.03
1.10
1.23
1.34
1.40
1.42
1.44
1.49
1.60
1.77
1.98
2.21
2.36
2.34
2.12
1.70
1.18
0.73
0.45
0.39
0.48
0.59
0.63
0.53
0.31
0.02
-0.32
-0.69
-1.14
-1.66
-2.25
-2.83
-3.33
-3.70
-3.89
-3.94
-3.92
-3.94
-4.06
-4.31
-4.63
-4.90
-4.97
-4.68
-3.96
-2.86
-1.52
-0.15
1.08
2.06
2.79
3.31
3.69
3.93
4.01
3.88
3.56
3.12
2.69
2.38
2.24
2.22
2.23
2.20
2.10
2.00
1.99
2.08
2.20
2.22
2.02
1.59
1.06
0.67
0.59
0.82
1.20
1.45
1.34
0.83
0.08
-0.66
-1.16
-1.36
-1.35
-1.35
-1.54
-1.96
-2.54
-3.08
-3.44
-3.53
-3.47
-3.40
-3.51
-3.85
-4.36
-4.90
-5.31
-5.49
-5.42
-5.16
-4.70
-4.02
-3.06
-1.85
-0.51
0.75
1.70
2.24
2.43
2.45
2.49
2.63
2.84
2.98
2.95
2.71
2.34
1.97
1.71
1.63
1.66
1.75
1.81
1.81
1.76
1.72
1.74
1.85
2.03
2.17
2.20
2.04
1.72
1.32
0.97
0.76
0.69
0.69
0.66
0.50
0.21
-0.20
-0.67
-1.15
-1.62
-2.06
-2.45
-2.73
-2.90
-2.96
-3.00
-3.10
-3.32
-3.67
-4.07
-4.44
-4.70
-4.85
-4.92
-4.92
-4.81
-4.50
-3.89
-2.97
-1.82
-0.62
0.45
1.26
1.78
2.08
2.32
2.59
2.96
3.38
3.77
4.02
4.06
3.87
3.48
2.98
2.48
2.10
1.92
1.97
2.20
2.52
2.81
2.98
3.00
2.93
2.87
2.91
3.03
3.17
3.19
2.98
2.54
1.95
1.34
0.84
0.51
0.28
0.10
-0.13
-0.44
-0.81
-1.18
-1.47
-1.63
-1.68
-1.68
-1.74
-1.95
-2.37
-2.95
-3.57
-4.12
-4.49
-4.64
-4.57
-4.29
-3.82
-3.19
-2.43
-1.58
-0.71
0.13
0.90
1.54
2.00
2.26
2.33
2.29
2.25
2.29
2.42
2.58
2.64
2.51
2.20
1.80
1.44
1.24
1.25
1.43
1.71
2.02
2.30
2.52
2.59
2.47
2.10
1.52
0.81
0.14
-0.35
-0.59
-0.58
-0.46
-0.36
-0.43
-0.74
-1.23
-1.80
-2.31
-2.63
-2.73
-2.64
-2.47
-2.32
-2.29
-2.38
-2.58
-2.82
-3.07
-3.30
-3.53
-3.77
-3.97
-4.05
-3.90
-3.47
-2.74
-1.79
-0.74
0.29
1.19
1.89
2.34
2.51
2.45
2.23
1.98
1.81
1.78
1.85
1.90
1.85
1.67
1.46
1.33
1.35
1.51
1.69
1.79
1.73
1.57
1.39
1.25
1.16
1.07
0.90
0.62
0.28
-0.04
-0.22
-0.24
-0.11
0.05
0.08
-0.11
-0.56
-1.16
-1.73
-2.12
-2.30
-2.35
-2.46
-2.80
-3.43
-4.22
-4.96
-5.43
-5.54
-5.32
-4.87
-4.27
-3.59
-2.82
-2.00
-1.17
-0.42
0.18
0.60
0.86
1.05
1.24
1.50
1.84
2.23
2.60
2.89
3.05
3.10
3.06
2.98
2.90
2.84
2.76
2.66
2.55
2.46
2.46
2.52
2.62
2.71
2.77
2.82
2.90
3.01
3.10
3.10
2.94
2.63
2.24
1.86
1.54
1.27
1.00
0.66
0.25
-0.24
-0.76
-1.27
-1.71
-2.03
-2.22
-2.27
-2.29
-2.39
-2.65
-3.10
-3.68
-4.23
-4.60
-4.69
-4.47
-4.01
-3.37
-2.63
-1.85
-1.08
-0.34
0.35
0.97
1.49
1.89
2.14
2.23
2.21
2.12
2.02
1.95
1.96
2.00
2.05
2.03
1.95
1.80
1.65
1.57
1.58
1.69
1.84
2.00
2.12
2.18
2.17
2.07
1.88
1.62
1.32
1.05
0.86
0.76
0.71
0.63
0.46
0.20
-0.12
-0.46
-0.77
-1.04
-1.30
-1.58
-1.91
-2.28
-2.68
-3.08
-3.46
-3.80
-4.14
-4.48
-4.83
-5.16
-5.34
-5.28
-4.88
-4.15
-3.19
-2.14
-1.14
-0.23
0.59
1.33
2.00
2.56
2.95
3.13
3.15
3.05
2.94
2.85
2.79
2.73
2.68
2.66
2.70
2.82
2.98
3.10
3.09
2.88
2.48
1.96
1.43
0.98
0.70
0.58
0.57
0.56
0.45
0.18
-0.24
-0.70
-1.06
-1.23
-1.17
-0.98
-0.77
-0.68
-0.76
-1.02
-1.40
-1.86
-2.34
-2.79
-3.17
-3.43
-3.53
-3.47
-3.31
-3.12
-2.98
-2.93
-2.98
-3.12
-3.31
-3.47
-3.46
-3.16
-2.48
-1.48
-0.30
0.81
1.63
2.07
2.21
2.24
2.31
2.49
2.69
2.79
2.67
2.34
1.91
1.52
1.26
1.18
1.21
1.31
1.45
1.63
1.88
2.19
2.51
2.76
2.84
2.73
2.48
2.23
2.13
2.24
2.51
2.75
2.78
2.49
1.89
1.12
0.38
-0.22
-0.65
-0.97
-1.28
-1.63
-2.01
-2.37
-2.62
-2.72
-2.66
-2.52
-2.39
-2.44
-2.77
-3.37
-4.13
-4.82
-5.18
-5.11
-4.60
-3.78
-2.78
-1.69
-0.55
0.65
1.81
2.80
3.45
3.68
3.55
3.24
2.95
2.80
2.77
2.79
2.75
2.65
2.51
2.36
2.21
2.00
1.68
1.25
0.81
0.48
0.37
0.48
0.73
0.98
1.12
1.15
1.12
1.09
1.09
1.06
0.90
0.53
-0.01
-0.60
-1.08
-1.33
-1.35
-1.22
-1.12
-1.17
-1.40
-1.78
-2.21
-2.59
-2.89
-3.08
-3.19
-3.27
-3.35
-3.47
-3.66
-3.88
-4.07
-4.12
-3.93
-3.42
-2.62
-1.63
-0.59
0.37
1.16
1.75
2.15
2.37
2.44
2.38
2.26
2.14
2.10
2.18
2.36
2.55
2.66
2.63
2.51
2.37
2.34
2.44
2.67
2.91
3.06
3.10
3.00
2.81
2.54
2.19
1.74
1.23
0.71
0.28
-0.01
-0.18
-0.29
-0.44
-0.67
-0.96
-1.23
-1.38
-1.38
-1.30
-1.30
-1.56
-2.17
-3.05
-3.99
-4.74
-5.16
-5.27
-5.21
-5.14
-5.11
-5.11
-5.03
-4.83
-4.53
-4.16
-3.70
-3.05
-2.12
-0.89
0.47
1.73
2.65
3.15
3.32
3.34
3.32
3.27
3.10
2.74
2.25
1.77
1.46
1.44
1.67
2.03
2.37
2.62
2.76
2.88
3.04
3.25
3.48
3.67
3.75
3.69
3.44
3.00
2.39
1.70
1.03
0.47
0.06
-0.21
-0.43
-0.69
-1.02
-1.38
-1.71
-1.91
-1.97
-1.94
-1.94
-2.07
-2.39
-2.87
-3.43
-3.97
-4.39
-4.65
-4.77
-4.78
-4.70
-4.55
-4.31
-3.97
-3.51
-2.92
-2.20
-1.38
-0.49
0.35
1.06
1.57
1.87
1.99
2.02
2.03
2.07
2.14
2.22
2.31
2.41
2.54
2.68
2.81
2.89
2.93
2.94
2.93
2.90
2.82
2.68
2.49
2.29
2.14
2.05
1.99
1.91
1.72
1.42
1.06
0.74
0.52
0.42
0.39
0.30
0.09
-0.29
-0.83
-1.45
-2.06
-2.59
-2.97
-3.15
-3.14
-3.01
-2.87
-2.90
-3.17
-3.71
-4.40
-5.03
-5.39
-5.33
-4.85
-4.04
-3.02
-1.93
-0.87
0.07
0.85
1.45
1.89
2.23
2.55
2.90
3.27
3.58
3.73
3.65
3.32
2.79
2.16
1.57
1.12
0.92
1.02
1.39
1.91
2.40
2.70
2.73
2.51
2.18
1.87
1.64
1.45
1.22
0.84
0.31
-0.29
-0.86
-1.30
-1.61
-1.80
-1.93
-2.00
-2.01
-1.95
-1.85
-1.82
-1.98
-2.37
-2.96
-3.61
-4.18
-4.59
-4.84
-5.01
-5.15
-5.22
-5.14
-4.79
-4.12
-3.18
-2.09
-1.02
-0.06
0.73
1.36
1.84
2.24
2.60
2.96
3.30
3.57
3.70
3.64
3.39
3.04
2.72
2.49
2.39
2.34
2.27
2.15
2.00
1.92
1.94
2.06
2.22
2.30
2.24
2.04
1.75
1.47
1.24
1.08
0.90
0.66
0.29
-0.15
-0.55
-0.80
-0.85
-0.76
-0.71
-0.89
-1.41
-2.23
-3.19
-4.07
-4.70
-5.04
-5.18
-5.25
-5.34
-5.49
-5.63
-5.68
-5.56
-5.24
-4.73
-4.06
-3.25
-2.33
-1.31
-0.24
0.76
1.62
2.24
2.64
2.88
3.06
3.25
3.45
3.62
3.66
3.52
3.23
2.85
2.52
2.33
2.31
2.44
2.66
2.88
3.03
3.06
2.97
2.80
2.61
2.47
2.39
2.35
2.28
2.12
1.87
1.57
1.32
1.18
1.13
1.11
1.01
0.75
0.33
-0.19
-0.78
-1.40
-2.07
-2.77
-3.41
-3.87
-4.08
-4.04
-3.88
-3.79
-3.92
-4.28
-4.73
-5.05
-5.07
-4.71
-4.00
-3.07
-2.04
-1.00
0.01
0.96
1.84
2.61
3.23
3.67
3.91
3.98
3.92
3.77
3.58
3.36
3.12
2.91
2.74
2.65
2.65
2.68
2.69
2.60
2.41
2.17
1.96
1.82
1.72
1.62
1.46
1.24
1.03
0.88
0.83
0.83
0.78
0.60
0.26
-0.24
-0.81
-1.39
-1.91
-2.33
-2.63
-2.79
-2.84
-2.82
-2.83
-2.94
-3.22
-3.65
-4.17
-4.66
-5.02
-5.15
-5.05
-4.76
-4.34
-3.85
-3.26
-2.55
-1.65
-0.57
0.60
1.73
2.68
3.36
3.78
4.02
4.15
4.23
4.22
4.09
3.81
3.43
3.09
2.90
2.92
3.09
3.26
3.26
3.05
2.69
2.30
2.02
1.89
1.84
1.77
1.63
1.41
1.14
0.86
0.56
0.24
-0.11
-0.46
-0.75
-0.92
-1.00
-1.07
-1.25
-1.58
-2.05
-2.57
-3.02
-3.35
-3.57
-3.78
-4.06
-4.40
-4.73
-4.93
-4.96
-4.87
-4.81
-4.89
-5.08
-5.17
-4.92
-4.14
-2.85
-1.26
0.32
1.64
2.59
3.21
3.61
3.87
4.03
4.08
4.03
3.88
3.70
3.54
3.41
3.28
3.12
2.90
2.62
2.38
2.24
2.27
2.48
2.78
3.08
3.30
3.38
3.29
3.04
2.62
2.04
1.35
0.62
-0.02
-0.47
-0.68
-0.68
-0.58
-0.53
-0.65
-0.97
-1.42
-1.86
-2.16
-2.25
-2.19
-2.12
-2.19
-2.46
-2.92
-3.46
-3.99
-4.47
-4.87
-5.19
-5.36
-5.30
-4.93
-4.25
-3.32
-2.28
-1.27
-0.39
0.33
0.95
1.54
2.16
2.83
3.50
4.08
4.47
4.58
4.42
4.06
3.59
3.13
2.76
2.55
2.52
2.66
2.92
3.23
3.53
3.76
3.91
4.00
4.06
4.07
3.95
3.62
3.03
2.21
1.28
0.44
-0.16
-0.41
-0.34
-0.07
0.23
0.37
0.28
-0.08
-0.64
-1.32
-2.03
-2.70
-3.29
-3.75
-4.03
-4.13
-4.08
-3.99
-3.99
-4.15
-4.47
-4.82
-5.01
-4.86
-4.30
-3.36
-2.18
-0.92
0.30
1.39
2.33
3.10
3.70
4.10
4.31
4.32
4.18
3.95
3.69
3.45
3.26
3.08
2.88
2.65
2.42
2.25
2.22
2.34
2.53
2.67
2.64
2.35
1.83
1.22
0.68
0.36
0.31
0.45
0.64
0.72
0.59
0.26
-0.20
-0.67
-1.07
-1.38
-1.68
-2.05
-2.53
-3.09
-3.63
-3.99
-4.10
-3.98
-3.78
-3.70
-3.89
-4.39
-5.10
-5.80
-6.30
-6.46
-6.26
-5.76
-5.07
-4.22
-3.24
-2.13
-0.93
0.27
1.35
2.24
2.88
3.24
3.35
3.21
2.91
2.54
2.25
2.13
2.23
2.49
2.81
3.08
3.24
3.27
3.19
3.00
2.72
2.35
1.93
1.52
1.19
0.98
0.89
0.91
1.03
1.22
1.44
1.61
1.65
1.48
1.10
0.57
-0.03
-0.58
-1.02
-1.32
-1.50
-1.60
-1.70
-1.86
-2.11
-2.44
-2.78
-3.06
-3.25
-3.36
-3.46
-3.62
-3.90
-4.28
-4.70
-5.04
-5.16
-4.96
-4.46
-3.71
-2.86
-2.04
-1.31
-0.65
0.00
0.74
1.56
2.37
3.03
3.38
3.35
2.99
2.42
1.84
1.42
1.27
1.40
1.74
2.17
2.57
2.90
3.15
3.37
3.58
3.80
4.00
4.18
4.31
4.34
4.26
4.02
3.59
3.01
2.34
1.67
1.10
0.66
0.35
0.11
-0.10
-0.32
-0.56
-0.83
-1.10
-1.36
-1.60
-1.81
-2.00
-2.20
-2.39
-2.57
-2.71
-2.82
-2.94
-3.14
-3.46
-3.88
-4.32
-4.66
-4.78
-4.65
-4.25
-3.62
-2.76
-1.70
-0.47
0.81
1.96
2.82
3.25
3.27
2.98
2.54
2.08
1.70
1.45
1.34
1.40
1.63
2.02
2.48
2.92
3.20
3.23
2.98
2.51
1.90
1.30
0.82
0.54
0.51
0.68
0.95
1.16
1.22
1.08
0.77
0.40
0.06
-0.21
-0.44
-0.68
-0.99
-1.36
-1.78
-2.22
-2.63
-3.00
-3.33
-3.61
-3.86
-4.12
-4.43
-4.83
-5.32
-5.82
-6.22
-6.34
-6.05
-5.27
-4.07
-2.62
-1.16
0.09
1.03
1.67
2.15
2.57
2.98
3.36
3.62
3.71
3.64
3.46
3.24
3.04
2.86
2.65
2.38
2.03
1.65
1.32
1.11
1.04
1.10
1.21
1.29
1.29
1.21
1.05
0.85
0.65
0.49
0.40
0.39
0.43
0.49
0.52
0.49
0.40
0.26
0.07
-0.23
-0.64
-1.15
-1.68
-2.14
-2.44
-2.61
-2.74
-2.98
-3.40
-3.98
-4.64
-5.24
-5.70
-6.00
-6.10
-6.00
-5.68
-5.12
-4.34
-3.40
-2.39
-1.36
-0.37
0.58
1.48
2.27
2.88
3.20
3.16
2.79
2.21
1.61
1.16
0.99
1.13
1.51
1.97
2.36
2.58
2.61
2.54
2.46
2.46
2.58
2.76
2.91
2.97
2.90
2.73
2.49
2.24
2.01
1.81
1.67
1.58
1.50
1.39
1.18
0.91
0.61
0.39
0.28
0.24
0.14
-0.14
-0.64
-1.31
-2.00
-2.59
-3.03
-3.36
-3.64
-3.92
-4.16
-4.32
-4.38
-4.43
-4.54
-4.76
-4.99
-5.01
-4.65
-3.82
-2.65
-1.37
-0.23
0.65
1.29
1.79
2.27
2.78
3.26
3.64
3.86
3.91
3.82
3.65
3.41
3.15
2.86
2.57
2.32
2.14
2.10
2.20
2.41
2.64
2.81
2.80
2.59
2.23
1.82
1.49
1.29
1.20
1.13
0.95
0.59
0.09
-0.46
-0.96
-1.34
-1.60
-1.79
-1.98
-2.20
-2.45
-2.72
-3.03
-3.39
-3.82
-4.30
-4.75
-5.10
-5.28
-5.27
-5.06
-4.71
-4.23
-3.63
-2.90
-2.06
-1.13
-0.19
0.72
1.55
2.30
2.96
3.51
3.88
3.99
3.77
3.25
2.54
1.81
1.26
1.02
1.13
1.52
2.09
2.67
3.12
3.30
3.16
2.73
2.16
1.63
1.32
1.28
1.47
1.76
2.04
2.24
2.36
2.39
2.27
1.92
1.29
0.42
-0.52
-1.29
-1.75
-1.85
-1.77
-1.73
-1.94
-2.48
-3.25
-4.03
-4.62
-4.91
-4.94
-4.83
-4.72
-4.71
-4.83
-5.00
-5.13
-5.11
-4.84
-4.27
-3.40
-2.30
-1.10
0.03
0.94
1.56
1.89
2.01
2.02
2.03
2.11
2.27
2.50
2.75
2.95
3.05
3.01
2.87
2.67
2.53
2.50
2.61
2.83
3.09
3.28
3.37
3.34
3.23
3.07
2.89
2.68
2.39
2.01
1.58
1.16
0.84
0.64
0.57
0.54
0.49
0.35
0.08
-0.29
-0.78
-1.38
-2.05
-2.73
-3.31
-3.70
-3.85
-3.83
-3.77
-3.86
-4.19
-4.73
-5.33
-5.83
-6.07
-5.99
-5.64
-5.09
-4.37
-3.51
-2.51
-1.37
-0.16
1.05
2.18
3.13
3.83
4.21
4.24
3.99
3.60
3.26
3.11
3.17
3.31
3.38
3.29
3.07
2.84
2.75
2.83
2.99
3.08
2.98
2.70
2.33
2.00
1.82
1.76
1.75
1.71
1.57
1.34
1.04
0.72
0.42
0.16
-0.04
-0.17
-0.25
-0.32
-0.46
-0.73
-1.19
-1.82
-2.52
-3.17
-3.62
-3.84
-3.88
-3.86
-3.90
-4.06
-4.29
-4.48
-4.50
-4.28
-3.82
-3.18
-2.41
-1.60
-0.76
0.08
0.91
1.73
2.51
3.22
3.80
4.18
4.31
4.20
3.93
3.62
3.40
3.32
3.35
3.40
3.36
3.18
2.86
2.47
2.09
1.80
1.61
1.52
1.51
1.56
1.62
1.66
1.63
1.49
1.23
0.89
0.50
0.14
-0.18
-0.44
-0.69
-0.97
-1.35
-1.82
-2.38
-2.94
-3.45
-3.87
-4.17
-4.36
-4.46
-4.52
-4.58
-4.71
-4.91
-5.17
-5.44
-5.59
-5.51
-5.11
-4.39
-3.41
-2.26
-1.05
0.16
1.31
2.35
3.23
3.89
4.30
4.47
4.43
4.24
3.92
3.49
3.00
2.53
2.19
2.11
2.30
2.69
3.14
3.48
3.64
3.63
3.50
3.31
3.06
2.71
2.21
1.59
0.94
0.38
-0.01
-0.21
-0.32
-0.42
-0.60
-0.88
-1.23
-1.61
-1.96
-2.26
-2.49
-2.63
-2.70
-2.71
-2.74
-2.82
-3.00
-3.30
-3.68
-4.14
-4.66
-5.20
-5.72
-6.10
-6.20
-5.89
-5.14
-4.00
-2.62
-1.20
0.10
1.16
1.96
2.53
2.97
3.32
3.62
3.83
3.91
3.84
3.66
3.44
3.27
3.20
3.21
3.24
3.26
3.26
3.23
3.15
3.02
2.82
2.57
2.33
2.21
2.24
2.40
2.55
2.58
2.40
2.03
1.54
1.05
0.62
0.25
-0.09
-0.46
-0.88
-1.36
-1.83
-2.20
-2.36
-2.27
-1.97
-1.65
-1.51
-1.71
-2.26
-3.02
-3.77
-4.32
-4.61
-4.71
-4.73
-4.70
-4.61
-4.31
-3.74
-2.88
-1.86
-0.81
0.13
0.92
1.56
2.12
2.61
3.04
3.35
3.51
3.49
3.33
3.10
2.86
2.66
2.53
2.49
2.51
2.57
2.61
2.61
2.53
2.39
2.24
2.11
1.98
1.79
1.48
1.03
0.52
0.09
-0.13
-0.08
0.16
0.41
0.51
0.35
-0.04
-0.55
-1.08
-1.54
-1.94
-2.31
-2.68
-3.06
-3.41
-3.71
-3.92
-4.09
-4.23
-4.39
-4.59
-4.84
-5.13
-5.42
-5.62
-5.65
-5.40
-4.82
-3.94
-2.81
-1.56
-0.27
0.94
2.00
2.83
3.34
3.53
3.45
3.19
2.89
2.63
2.46
2.40
2.41
2.49
2.61
2.73
2.78
2.72
2.55
2.33
2.15
2.07
2.12
2.25
2.37
2.42
2.38
2.28
2.14
1.96
1.72
1.40
0.99
0.59
0.27
0.13
0.18
0.35
0.51
0.51
0.27
-0.23
-0.92
-1.65
-2.30
-2.78
-3.09
-3.26
-3.37
-3.50
-3.67
-3.93
-4.27
-4.69
-5.17
-5.66
-6.10
-6.38
-6.41
-6.09
-5.37
-4.28
-2.93
-1.49
-0.18
0.85
1.53
1.92
2.16
2.39
2.66
2.97
3.23
3.40
3.48
3.51
3.51
3.51
3.48
3.41
3.32
3.25
3.26
3.41
3.68
3.99
4.23
4.28
4.03
3.48
2.70
1.81
1.00
0.42
0.14
0.16
0.38
0.70
1.03
1.27
1.39
1.34
1.11
0.69
0.11
-0.55
-1.17
-1.64
-1.91
-2.05
-2.15
-2.31
-2.57
-2.86
-3.06
-3.14
-3.15
-3.25
-3.60
-4.22
-4.97
-5.63
-5.95
-5.82
-5.26
-4.39
-3.35
-2.22
-1.01
0.27
1.58
2.80
3.77
4.37
4.54
4.33
3.89
3.40
3.00
2.72
2.55
2.45
2.38
2.32
2.28
2.26
2.26
2.25
2.24
2.28
2.38
2.54
2.70
2.76
2.65
2.36
2.00
1.68
1.50
1.46
1.46
1.38
1.16
0.78
0.31
-0.14
-0.52
-0.81
-1.08
-1.35
-1.63
-1.91
-2.15
-2.37
-2.62
-2.98
-3.49
-4.11
-4.73
-5.21
-5.47
-5.51
-5.45
-5.36
-5.29
-5.19
-4.94
-4.42
-3.58
-2.51
-1.34
-0.25
0.64
1.25
1.61
1.78
1.87
1.92
2.00
2.10
2.22
2.33
2.43
2.48
2.46
2.36
2.25
2.20
2.30
2.59
3.01
3.46
3.80
3.97
3.99
3.91
3.75
3.51
3.15
2.69
2.22
1.87
1.75
1.82
1.91
1.81
1.34
0.50
-0.53
-1.55
-2.36
-2.88
-3.12
-3.18
-3.12
-3.00
-2.86
-2.76
-2.78
-3.03
-3.56
-4.35
-5.29
-6.19
-6.83
-7.06
-6.83
-6.18
-5.25
-4.20
-3.12
-2.11
-1.19
-0.38
0.29
0.83
1.30
1.76
2.24
2.72
3.11
3.28
3.17
2.85
2.46
2.16
2.05
2.14
2.35
2.57
2.77
2.94
3.12
3.33
3.53
3.67
3.66
3.48
3.12
2.66
2.19
1.81
1.58
1.49
1.50
1.49
1.39
1.14
0.79
0.37
-0.04
-0.40
-0.72
-1.02
-1.32
-1.63
-1.93
-2.20
-2.45
-2.68
-2.90
-3.12
-3.31
-3.46
-3.58
-3.68
-3.78
-3.87
-3.91
-3.76
-3.32
-2.53
-1.44
-0.23
0.88
1.70
2.21
2.49
2.69
2.94
3.26
3.56
3.77
3.83
3.74
3.55
3.30
2.98
2.56
2.08
1.59
1.20
0.96
0.88
0.89
0.94
1.06
1.27
1.57
1.91
2.14
2.14
1.84
1.33
0.76
0.31
0.04
-0.11
-0.27
-0.57
-1.03
-1.61
-2.19
-2.67
-2.94
-2.98
-2.79
-2.43
-2.06
-1.83
-1.92
-2.38
-3.13
-3.97
-4.65
-4.99
-4.94
-4.58
-4.04
-3.42
-2.79
-2.12
-1.40
-0.66
0.06
0.72
1.29
1.79
2.22
2.57
2.78
2.85
2.78
2.64
2.52
2.46
2.49
2.55
2.63
2.69
2.75
2.82
2.91
2.97
2.95
2.77
2.41
1.92
1.37
0.90
0.60
0.50
0.54
0.62
0.62
0.45
0.13
-0.28
-0.66
-0.94
-1.07
-1.11
-1.16
-1.33
-1.67
-2.16
-2.73
-3.28
-3.71
-4.01
-4.16
-4.22
-4.22
-4.21
-4.22
-4.27
-4.39
-4.55
-4.71
-4.76
-4.58
-4.05
-3.18
-2.05
-0.81
0.33
1.25
1.88
2.26
2.49
2.64
2.78
2.90
2.95
2.90
2.75
2.59
2.49
2.49
2.57
2.65
2.66
2.59
2.49
2.47
2.59
2.83
3.07
3.17
3.05
2.72
2.26
1.80
1.45
1.20
1.02
0.84
0.65
0.48
0.39
0.46
0.66
0.92
1.07
0.98
0.59
-0.02
-0.71
-1.32
-1.80
-2.22
-2.69
-3.27
-3.94
-4.56
-4.97
-5.13
-5.13
-5.15
-5.32
-5.64
-5.91
-5.84
-5.22
-4.06
-2.56
-1.06
0.13
0.89
1.29
1.51
1.73
2.04
2.41
2.79
3.11
3.35
3.53
3.64
3.68
3.63
3.49
3.28
3.02
2.77
2.57
2.46
2.43
2.47
2.54
2.58
2.57
2.49
2.38
2.26
2.16
2.06
1.93
1.70
1.39
1.00
0.58
0.18
-0.15
-0.39
-0.56
-0.69
-0.88
-1.20
-1.72
-2.41
-3.17
-3.85
-4.26
-4.33
-4.08
-3.65
-3.24
-3.00
-2.97
-3.12
-3.36
-3.58
-3.73
-3.77
-3.67
-3.35
-2.77
-1.85
-0.66
0.67
1.91
2.86
3.41
3.58
3.52
3.39
3.34
3.39
3.46
3.44
3.25
2.90
2.55
2.33
2.35
2.56
2.82
2.94
2.77
2.33
1.77
1.25
0.92
0.80
0.81
0.83
0.77
0.61
0.40
0.16
-0.09
-0.36
-0.67
-0.98
-1.27
-1.50
-1.67
-1.83
-2.01
-2.27
-2.60
-3.02
-3.48
-3.95
-4.40
-4.79
-5.10
-5.33
-5.45
-5.45
-5.32
-5.06
-4.69
-4.23
-3.71
-3.14
-2.52
-1.80
-0.97
-0.04
0.96
1.92
2.70
3.20
3.35
3.23
2.97
2.75
2.65
2.65
2.62
2.44
2.08
1.69
1.44
1.50
1.85
2.35
2.78
3.02
3.05
2.98
2.91
2.88
2.83
2.68
2.35
1.84
1.20
0.55
-0.03
-0.45
-0.67
-0.69
-0.56
-0.39
-0.30
-0.38
-0.65
-1.03
-1.46
-1.84
-2.18
-2.53
-2.96
-3.47
-4.00
-4.49
-4.86
-5.12
-5.28
-5.37
-5.36
-5.17
-4.71
-3.96
-3.00
-1.96
-0.98
-0.13
0.60
1.25
1.85
2.38
2.77
2.97
2.97
2.80
2.55
2.32
2.17
2.14
2.22
2.39
2.61
2.87
3.14
3.44
3.76
4.09
4.40
4.62
4.63
4.36
3.81
3.05
2.26
1.57
1.08
0.79
0.62
0.43
0.16
-0.21
-0.65
-1.08
-1.46
-1.76
-1.94
-2.02
-2.04
-2.07
-2.17
-2.40
-2.75
-3.17
-3.58
-3.88
-4.05
-4.10
-4.05
-3.91
-3.68
-3.32
-2.80
-2.12
-1.31
-0.40
0.52
1.39
2.14
2.76
3.25
3.62
3.87
3.96
3.86
3.57
3.15
2.71
2.38
2.24
2.30
2.47
2.62
2.63
2.43
2.09
1.68
1.33
1.07
0.86
0.64
0.35
0.01
-0.29
-0.44
-0.41
-0.27
-0.17
-0.23
-0.53
-1.02
-1.58
-2.10
-2.53
-2.90
-3.25
-3.58
-3.84
-3.98
-3.95
-3.84
-3.75
-3.82
-4.10
-4.49
-4.83
-4.93
-4.65
-3.99
-3.06
-2.01
-0.99
-0.09
0.68
1.36
2.00
2.62
3.21
3.70
4.00
4.02
3.74
3.22
2.59
2.01
1.61
1.43
1.44
1.53
1.63
1.74
1.88
2.09
2.33
2.50
2.48
2.22
1.75
1.18
0.67
0.31
0.13
0.08
0.06
0.02
-0.09
-0.29
-0.57
-0.90
-1.28
-1.67
-2.02
-2.31
-2.56
-2.81
-3.12
-3.57
-4.15
-4.80
-5.40
-5.79
-5.85
-5.55
-4.95
-4.16
-3.29
-2.35
-1.35
-0.26
0.84
1.84
2.62
3.11
3.34
3.41
3.43
3.46
3.48
3.41
3.19
2.80
2.29
1.74
1.27
1.01
1.02
1.30
1.76
2.28
2.71
2.99
3.14
3.19
3.20
3.16
3.03
2.77
2.40
1.99
1.62
1.32
1.05
0.74
0.30
-0.26
-0.91
-1.53
-2.04
-2.39
-2.58
-2.67
-2.77
-2.95
-3.26
-3.69
-4.15
-4.53
-4.74
-4.76
-4.64
-4.47
-4.25
-3.94
-3.44
-2.71
-1.82
-0.90
-0.10
0.54
1.08
1.63
2.22
2.81
3.27
3.46
3.39
3.16
2.95
2.86
2.89
2.97
3.02
3.06
3.16
3.34
3.56
3.69
3.61
3.27
2.79
2.37
2.16
2.19
2.36
2.47
2.42
2.21
1.91
1.61
1.29
0.87
0.28
-0.47
-1.25
-1.91
-2.32
-2.50
-2.53
-2.51
-2.52
-2.56
-2.62
-2.75
-3.01
-3.48
-4.17
-4.96
-5.64
-5.95
-5.74
-4.98
-3.83
-2.54
-1.36
-0.42
0.30
0.88
1.47
2.13
2.85
3.52
4.03
4.26
4.20
3.91
3.47
3.02
2.62
2.34
2.19
2.15
2.17
2.18
2.11
1.96
1.76
1.59
1.53
1.59
1.72
1.81
1.76
1.54
1.19
0.78
0.36
-0.05
-0.47
-0.94
-1.43
-1.91
-2.30
-2.56
-2.71
-2.79
-2.86
-2.96
-3.12
-3.34
-3.60
-3.90
-4.23
-4.59
-4.95
-5.27
-5.44
-5.35
-4.85
-3.90
-2.56
-1.06
0.35
1.44
2.14
2.53
2.77
2.99
3.23
3.43
3.48
3.36
3.16
3.00
3.00
3.17
3.42
3.58
3.52
3.21
2.72
2.23
1.90
1.80
1.92
2.12
2.24
2.16
1.89
1.49
1.12
0.84
0.68
0.55
0.36
0.03
-0.48
-1.12
-1.82
-2.49
-3.05
-3.46
-3.70
-3.78
-3.72
-3.60
-3.46
-3.40
-3.47
-3.75
-4.22
-4.80
-5.36
-5.73
-5.79
-5.49
-4.83
-3.88
-2.70
-1.38
-0.01
1.28
2.33
3.04
3.37
3.40
3.25
3.04
2.88
2.82
2.84
2.92
3.00
3.01
2.93
2.78
2.63
2.56
2.60
2.73
2.84
2.83
2.63
2.30
1.95
1.69
1.59
1.62
1.70
1.75
1.73
1.64
1.47
1.20
0.85
0.46
0.12
-0.09
-0.17
-0.20
-0.31
-0.65
-1.22
-1.90
-2.54
-2.99
-3.26
-3.45
-3.68
-4.02
-4.41
-4.76
-4.96
-5.01
-4.95
-4.81
-4.56
-4.14
-3.46
-2.49
-1.30
0.01
1.30
2.45
3.35
3.91
4.08
3.88
3.40
2.80
2.26
1.88
1.68
1.63
1.62
1.62
1.64
1.74
1.96
2.27
2.61
2.88
3.00
2.97
2.83
2.66
2.54
2.50
2.50
2.42
2.16
1.67
0.98
0.26
-0.32
-0.68
-0.84
-0.94
-1.13
-1.47
-1.89
-2.28
-2.52
-2.62
-2.65
-2.70
-2.81
-2.91
-2.90
-2.74
-2.48
-2.28
-2.25
-2.42
-2.69
-2.89
-2.87
-2.57
-2.04
-1.38
-0.69
-0.03
0.60
1.24
1.89
2.58
3.26
3.86
4.29
4.45
4.29
3.81
3.14
2.46
1.95
1.72
1.76
1.93
2.05
2.02
1.83
1.57
1.34
1.19
1.09
0.97
0.77
0.53
0.33
0.26
0.33
0.48
0.59
0.55
0.34
-0.03
-0.50
-1.02
-1.54
-2.06
-2.54
-2.99
-3.37
-3.68
-3.95
-4.20
-4.43
-4.64
-4.79
-4.87
-4.91
-4.96
-5.04
-5.12
-5.09
-4.80
-4.15
-3.14
-1.90
-0.63
0.50
1.42
2.12
2.65
3.04
3.27
3.33
3.26
3.15
3.07
3.03
2.99
2.86
2.58
2.19
1.79
1.51
1.42
1.50
1.68
1.87
1.98
1.98
1.86
1.63
1.35
1.06
0.80
0.57
0.37
0.15
-0.11
-0.41
-0.75
-1.09
-1.46
-1.84
-2.26
-2.69
-3.12
-3.52
-3.85
-4.13
-4.40
-4.70
-5.07
-5.48
-5.86
-6.08
-6.04
-5.69
-5.05
-4.20
-3.23
-2.22
-1.21
-0.21
0.76
1.65
2.37
2.88
3.18
3.32
3.39
3.43
3.43
3.35
3.16
2.90
2.67
2.61
2.79
3.20
3.68
4.04
4.07
3.74
3.14
2.46
1.94
1.69
1.71
1.88
2.02
2.01
1.81
1.47
1.12
0.86
0.72
0.68
0.64
0.52
0.28
-0.07
-0.50
-0.92
-1.30
-1.63
-1.91
-2.18
-2.44
-2.68
-2.88
-3.05
-3.21
-3.39
-3.62
-3.88
-4.10
-4.18
-4.00
-3.51
-2.74
-1.77
-0.71
0.31
1.23
2.01
2.63
3.10
3.46
3.72
3.93
4.08
4.13
4.02
3.70
3.19
2.59
2.03
1.63
1.43
1.42
1.50
1.61
1.73
1.88
2.08
2.33
2.59
2.76
2.80
2.69
2.47
2.22
1.97
1.70
1.35
0.86
0.21
-0.51
-1.15
-1.58
-1.72
-1.66
-1.55
-1.56
-1.77
-2.12
-2.48
-2.74
-2.85
-2.93
-3.09
-3.41
-3.87
-4.37
-4.76
-4.97
-4.96
-4.75
-4.35
-3.79
-3.10
-2.33
-1.52
-0.70
0.14
1.03
1.92
2.75
3.43
3.88
4.09
4.10
3.98
3.76
3.47
3.11
2.76
2.53
2.51
2.69
2.97
3.17
3.17
2.91
2.44
1.89
1.38
1.01
0.81
0.77
0.84
0.95
1.02
0.96
0.73
0.34
-0.18
-0.72
-1.23
-1.64
-1.95
-2.21
-2.46
-2.74
-3.04
-3.37
-3.64
-3.82
-3.92
-3.99
-4.14
-4.46
-4.95
-5.56
-6.13
-6.52
-6.58
-6.27
-5.56
-4.51
-3.23
-1.86
-0.54
0.59
1.46
2.11
2.59
3.00
3.36
3.66
3.86
3.93
3.86
3.68
3.41
3.09
2.76
2.44
2.18
2.02
1.99
2.06
2.18
2.29
2.35
2.32
2.22
2.05
1.84
1.62
1.42
1.26
1.12
0.96
0.75
0.46
0.09
-0.29
-0.63
-0.86
-0.94
-0.92
-0.90
-1.00
-1.34
-1.94
-2.71
-3.53
-4.24
-4.77
-5.12
-5.36
-5.53
-5.64
-5.63
-5.42
-5.00
-4.43
-3.80
-3.17
-2.54
-1.82
-0.92
0.16
1.33
2.45
3.36
4.00
4.38
4.56
4.58
4.47
4.22
3.85
3.43
3.06
2.85
2.85
3.02
3.27
3.49
3.61
3.59
3.45
3.21
2.90
2.55
2.22
1.93
1.71
1.55
1.40
1.23
0.99
0.70
0.41
0.14
-0.08
-0.29
-0.55
-0.91
-1.36
-1.82
-2.20
-2.43
-2.54
-2.61
-2.76
-3.08
-3.58
-4.20
-4.83
-5.36
-5.71
-5.80
-5.55
-4.91
-3.87
-2.53
-1.08
0.28
1.37
2.15
2.71
3.16
3.60
4.04
4.39
4.56
4.47
4.16
3.72
3.27
2.87
2.52
2.20
1.89
1.59
1.37
1.29
1.36
1.55
1.77
1.91
1.92
1.79
1.56
1.29
1.04
0.79
0.54
0.27
-0.00
-0.25
-0.49
-0.74
-1.04
-1.41
-1.85
-2.27
-2.63
-2.91
-3.17
-3.55
-4.10
-4.82
-5.59
-6.22
-6.59
-6.66
-6.51
-6.19
-5.76
-5.14
-4.27
-3.12
-1.76
-0.37
0.88
1.87
2.59
3.09
3.43
3.64
3.70
3.65
3.50
3.32
3.15
2.98
2.76
2.49
2.21
2.02
1.99
2.16
2.46
2.75
2.92
2.90
2.75
2.51
2.25
1.98
1.65
1.24
0.77
0.29
-0.11
-0.39
-0.55
-0.69
-0.90
-1.27
-1.78
-2.34
-2.82
-3.13
-3.25
-3.28
-3.35
-3.55
-3.91
-4.37
-4.84
-5.25
-5.59
-5.86
-6.05
-6.13
-6.00
-5.59
-4.85
-3.79
-2.47
-1.00
0.52
1.93
3.10
3.93
4.39
4.55
4.53
4.45
4.38
4.28
4.10
3.78
3.36
2.91
2.55
2.35
2.31
2.37
2.44
2.47
2.48
2.50
2.56
2.65
2.72
2.70
2.55
2.26
1.89
1.53
1.24
1.02
0.86
0.74
0.64
0.54
0.41
0.20
-0.17
-0.76
-1.56
-2.49
-3.40
-4.15
-4.65
-4.94
-5.12
-5.34
-5.69
-6.13
-6.49
-6.50
-5.95
-4.79
-3.19
-1.45
0.10
1.28
2.10
2.72
3.31
3.92
4.46
4.79
4.80
4.52
4.08
3.70
3.49
3.50
3.63
3.74
3.72
3.48
3.09
2.65
2.34
2.25
2.38
2.62
2.78
2.68
2.28
1.66
0.95
0.32
-0.14
-0.43
-0.57
-0.61
-0.57
-0.49
-0.45
-0.54
-0.85
-1.41
-2.15
-2.89
-3.47
-3.78
-3.83
-3.74
-3.65
-3.69
-3.93
-4.32
-4.79
-5.17
-5.32
-5.13
-4.53
-3.55
-2.30
-0.94
0.35
1.47
2.38
3.09
3.65
4.04
4.25
4.27
4.12
3.89
3.68
3.54
3.49
3.50
3.48
3.40
3.30
3.23
3.25
3.36
3.50
3.58
3.49
3.20
2.71
2.11
1.49
0.94
0.52
0.23
0.02
-0.17
-0.42
-0.76
-1.20
-1.71
-2.22
-2.67
-3.02
-3.26
-3.45
-3.62
-3.81
-4.01
-4.24
-4.48
-4.76
-5.13
-5.59
-6.08
-6.43
-6.45
-5.97
-4.97
-3.57
-1.98
-0.43
0.92
2.00
2.80
3.32
3.59
3.61
3.41
3.04
2.58
2.15
1.83
1.68
1.69
1.81
1.95
2.05
2.09
2.12
2.24
2.48
2.83
3.16
3.28
3.05
2.49
1.70
0.91
0.33
0.09
0.18
0.47
0.77
0.92
0.81
0.45
-0.10
-0.74
-1.38
-1.97
-2.47
-2.89
-3.27
-3.60
-3.91
-4.21
-4.52
-4.85
-5.18
-5.43
-5.47
-5.17
-4.44
-3.33
-2.02
-0.74
0.33
1.12
1.70
2.19
2.68
3.16
3.51
3.63
3.49
3.19
2.90
2.76
2.81
2.97
3.08
3.02
2.77
2.42
2.14
2.11
2.41
2.98
3.65
4.19
4.39
4.16
3.53
2.64
1.72
0.96
0.48
0.28
0.26
0.29
0.28
0.20
0.07
-0.05
-0.16
-0.29
-0.54
-0.98
-1.62
-2.37
-3.11
-3.70
-4.11
-4.39
-4.64
-4.96
-5.34
-5.68
-5.81
-5.58
-4.91
-3.87
-2.58
-1.24
-0.01
1.05
1.95
2.73
3.44
4.07
4.53
4.73
4.62
4.23
3.68
3.13
2.69
2.39
2.18
2.00
1.85
1.77
1.87
2.16
2.57
2.94
3.10
2.97
2.60
2.13
1.69
1.34
1.03
0.69
0.25
-0.28
-0.85
-1.38
-1.86
-2.25
-2.56
-2.80
-2.97
-3.05
-3.11
-3.17
-3.30
-3.54
-3.86
-4.24
-4.65
-5.08
-5.50
-5.87
-6.05
-5.88
-5.24
-4.14
-2.74
-1.33
-0.15
0.64
1.07
1.26
1.38
1.52
1.71
1.92
2.12
2.31
2.48
2.59
2.58
2.40
2.02
1.55
1.10
0.82
0.82
1.13
1.68
2.38
3.06
3.57
3.79
3.65
3.16
2.43
1.62
0.93
0.49
0.35
0.43
0.57
0.58
0.34
-0.16
-0.80
-1.42
-1.89
-2.17
-2.32
-2.44
-2.66
-3.00
-3.44
-3.90
-4.31
-4.63
-4.87
-5.05
-5.16
-5.15
-4.95
-4.51
-3.84
-2.98
-2.06
-1.18
-0.40
0.25
0.81
1.32
1.81
2.29
2.73
3.09
3.31
3.34
3.16
2.81
2.36
1.95
1.67
1.58
1.69
1.95
2.33
2.77
3.19
3.50
3.59
3.40
2.98
2.45
1.99
1.72
1.64
1.62
1.52
1.22
0.76
0.23
-0.24
-0.61
-0.86
-1.06
-1.24
-1.43
-1.63
-1.87
-2.14
-2.42
-2.66
-2.82
-2.91
-2.98
-3.17
-3.56
-4.15
-4.82
-5.35
-5.51
-5.16
-4.30
-3.10
-1.77
-0.50
0.61
1.55
2.33
2.98
3.46
3.76
3.86
3.81
3.64
3.40
3.06
2.62
2.09
1.53
1.06
0.77
0.72
0.89
1.21
1.58
1.93
2.17
2.26
2.19
2.01
1.77
1.54
1.30
1.00
0.61
0.10
-0.44
-0.89
-1.19
-1.35
-1.47
-1.70
-2.08
-2.55
-2.97
-3.21
-3.23
-3.14
-3.09
-3.25
-3.65
-4.16
-4.62
-4.88
-4.88
-4.65
-4.26
-3.77
-3.13
-2.29
-1.24
-0.03
1.22
2.31
3.12
3.60
3.79
3.80
3.69
3.51
3.25
2.92
2.56
2.22
1.95
1.78
1.68
1.62
1.57
1.54
1.57
1.71
1.96
2.25
2.50
2.62
2.55
2.32
1.99
1.61
1.20
0.72
0.16
-0.48
-1.11
-1.61
-1.87
-1.89
-1.78
-1.73
-1.89
-2.32
-2.95
-3.62
-4.19
-4.54
-4.68
-4.67
-4.57
-4.48
-4.47
-4.58
-4.77
-4.94
-4.95
-4.69
-4.10
-3.27
-2.30
-1.32
-0.34
0.68
1.73
2.75
3.56
3.98
3.95
3.53
2.99
2.54
2.31
2.27
2.29
2.25
2.15
2.08
2.14
2.35
2.63
2.81
2.79
2.53
2.14
1.77
1.56
1.51
1.56
1.53
1.33
0.93
0.44
0.03
-0.16
-0.10
0.08
0.17
-0.03
-0.59
-1.41
-2.31
-3.12
-3.74
-4.19
-4.57
-4.96
-5.39
-5.81
-6.11
-6.22
-6.07
-5.67
-5.07
-4.30
-3.42
-2.44
-1.38
-0.25
0.91
2.05
3.07
3.85
4.29
4.32
3.96
3.33
2.61
1.98
1.62
1.58
1.82
2.21
2.63
2.94
3.10
3.11
3.03
2.96
2.97
3.09
3.27
3.43
3.43
3.21
2.76
2.18
1.61
1.12
0.77
0.51
0.33
0.19
0.12
0.11
0.11
0.02
-0.29
-0.88
-1.70
-2.57
-3.31
-3.76
-3.92
-3.92
-3.94
-4.13
-4.47
-4.78
-4.81
-4.35
-3.35
-1.95
-0.44
0.91
1.93
2.63
3.09
3.40
3.57
3.55
3.28
2.79
2.20
1.68
1.37
1.32
1.51
1.83
2.18
2.50
2.74
2.88
2.88
2.73
2.45
2.06
1.64
1.27
0.99
0.80
0.65
0.48
0.22
-0.11
-0.44
-0.72
-0.91
-1.05
-1.23
-1.50
-1.88
-2.26
-2.54
-2.68
-2.73
-2.87
-3.23
-3.87
-4.65
-5.34
-5.72
-5.64
-5.12
-4.27
-3.25
-2.17
-1.08
0.01
1.10
2.14
3.07
3.80
4.29
4.53
4.55
4.41
4.16
3.82
3.41
2.97
2.53
2.12
1.81
1.59
1.49
1.49
1.58
1.72
1.81
1.78
1.55
1.12
0.57
0.03
-0.37
-0.56
-0.57
-0.49
-0.43
-0.47
-0.62
-0.86
-1.18
-1.54
-1.96
-2.45
-3.01
-3.61
-4.21
-4.77
-5.27
-5.65
-5.92
-6.03
-5.97
-5.69
-5.17
-4.38
-3.32
-2.04
-0.59
0.88
2.23
3.29
3.97
4.25
4.23
4.04
3.78
3.51
3.23
2.92
2.60
2.31
2.12
2.06
2.12
2.23
2.31
2.35
2.35
2.36
2.40
2.44
2.41
2.28
2.05
1.79
1.56
1.40
1.27
1.08
0.72
0.17
-0.52
-1.21
-1.75
-2.05
-2.11
-1.99
-1.81
-1.66
-1.60
-1.67
-1.90
-2.29
-2.82
-3.42
-3.99
-4.40
-4.59
-4.52
-4.23
-3.71
-2.98
-2.04
-0.92
0.26
1.36
2.23
2.82
3.19
3.46
3.69
3.88
3.96
3.86
3.61
3.33
3.18
3.22
3.41
3.58
3.59
3.33
2.87
2.34
1.91
1.69
1.71
1.89
2.09
2.19
2.07
1.76
1.33
0.93
0.65
0.51
0.43
0.28
-0.05
-0.59
-1.27
-1.97
-2.54
-2.92
-3.09
-3.13
-3.10
-3.06
-3.04
-3.08
-3.20
-3.42
-3.75
-4.11
-4.37
-4.38
-4.04
-3.33
-2.35
-1.24
-0.14
0.83
1.65
2.30
2.80
3.18
3.45
3.63
3.71
3.69
3.56
3.32
3.01
2.71
2.50
2.45
2.56
2.76
2.93
2.99
2.89
2.66
2.38
2.12
1.89
1.62
1.24
0.70
0.06
-0.58
-1.09
-1.42
-1.60
-1.76
-1.98
-2.29
-2.63
-2.90
-3.05
-3.08
-3.08
-3.16
-3.39
-3.75
-4.19
-4.59
-4.87
-4.94
-4.75
-4.34
-3.75
-3.04
-2.28
-1.51
-0.73
0.03
0.78
1.46
2.03
2.47
2.78
2.99
3.08
3.03
2.81
2.46
2.05
1.71
1.55
1.57
1.72
1.89
1.98
1.96
1.84
1.67
1.49
1.31
1.13
0.93
0.74
0.56
0.42
0.31
0.20
0.05
-0.15
-0.38
-0.61
-0.82
-0.98
-1.13
-1.34
-1.65
-2.06
-2.50
-2.88
-3.15
-3.32
-3.48
-3.73
-4.08
-4.46
-4.72
-4.70
-4.32
-3.64
-2.82
-2.03
-1.37
-0.86
-0.42
0.05
0.66
1.39
2.18
2.92
3.50
3.84
3.94
3.80
3.47
2.99
2.45
1.92
1.49
1.24
1.21
1.40
1.75
2.13
2.44
2.61
2.60
2.47
2.26
2.01
1.76
1.53
1.31
1.15
1.06
1.01
0.94
0.72
0.30
-0.30
-0.95
-1.51
-1.86
-1.98
-1.95
-1.93
-2.05
-2.40
-2.96
-3.68
-4.44
-5.13
-5.63
-5.83
-5.66
-5.13
-4.29
-3.25
-2.14
-1.09
-0.18
0.59
1.24
1.83
2.40
2.93
3.36
3.65
3.73
3.62
3.36
3.02
2.69
2.46
2.35
2.34
2.36
2.32
2.20
2.04
1.93
1.93
2.06
2.21
2.24
2.07
1.72
1.27
0.82
0.44
0.07
-0.35
-0.86
-1.40
-1.88
-2.19
-2.29
-2.25
-2.15
-2.07
-2.07
-2.17
-2.37
-2.67
-3.06
-3.54
-4.07
-4.56
-4.89
-4.94
-4.59
-3.83
-2.73
-1.44
-0.16
0.96
1.87
2.55
3.05
3.40
3.58
3.60
3.48
3.32
3.22
3.22
3.30
3.36
3.26
2.98
2.55
2.10
1.74
1.51
1.39
1.31
1.21
1.07
0.92
0.80
0.75
0.77
0.82
0.85
0.82
0.64
0.29
-0.21
-0.79
-1.34
-1.77
-2.01
-2.10
-2.10
-2.08
-2.09
-2.16
-2.34
-2.70
-3.26
-4.00
-4.79
-5.41
-5.69
-5.52
-4.97
-4.19
-3.32
-2.45
-1.57
-0.69
0.16
0.90
1.42
1.69
1.75
1.74
1.79
1.96
2.21
2.45
2.57
2.54
2.39
2.20
2.06
2.02
2.09
2.22
2.35
2.43
2.42
2.28
2.02
1.66
1.24
0.84
0.50
0.23
0.01
-0.23
-0.53
-0.88
-1.21
-1.40
-1.39
-1.24
-1.07
-1.03
-1.24
-1.65
-2.15
-2.61
-2.99
-3.34
-3.77
-4.35
-5.02
-5.62
-5.94
-5.81
-5.17
-4.12
-2.84
-1.58
-0.53
0.20
0.64
0.94
1.25
1.66
2.15
2.60
2.87
2.96
2.92
2.89
2.94
3.07
3.16
3.07
2.76
2.28
1.79
1.44
1.32
1.42
1.66
1.90
2.06
2.09
1.97
1.73
1.41
1.03
0.62
0.21
-0.20
-0.59
-0.95
-1.26
-1.48
-1.60
-1.61
-1.54
-1.43
-1.34
-1.31
-1.40
-1.67
-2.17
-2.88
-3.71
-4.49
-5.03
-5.18
-4.91
-4.25
-3.30
-2.14
-0.84
0.50
1.75
2.77
3.40
3.62
3.51
3.24
2.95
2.73
2.56
2.39
2.16
1.92
1.73
1.67
1.74
1.88
2.01
2.07
2.11
2.16
2.26
2.41
2.52
2.48
2.25
1.86
1.42
1.08
0.91
0.88
0.89
0.79
0.48
-0.07
-0.77
-1.49
-2.07
-2.42
-2.53
-2.47
-2.37
-2.32
-2.39
-2.57
-2.82
-3.10
-3.42
-3.75
-4.08
-4.31
-4.32
-3.94
-3.10
-1.82
-0.29
1.22
2.46
3.26
3.59
3.56
3.35
3.09
2.86
2.66
2.49
2.34
2.26
2.25
2.30
2.37
2.34
2.14
1.77
1.30
0.83
0.49
0.34
0.38
0.54
0.74
0.89
0.97
1.00
1.01
1.02
0.95
0.74
0.33
-0.25
-0.91
-1.49
-1.88
-2.08
-2.12
-2.11
-2.13
-2.21
-2.39
-2.67
-3.06
-3.54
-4.09
-4.61
-5.03
-5.25
-5.20
-4.86
-4.20
-3.28
-2.20
-1.07
-0.01
0.90
1.64
2.20
2.60
2.87
3.02
3.07
3.04
2.93
2.74
2.46
2.09
1.70
1.38
1.16
1.09
1.12
1.25
1.46
1.77
2.21
2.72
3.17
3.40
3.31
2.92
2.34
1.76
1.30
0.99
0.77
0.52
0.20
-0.18
-0.54
-0.80
-0.90
-0.91
-0.92
-1.07
-1.39
-1.86
-2.36
-2.76
-3.00
-3.06
-3.04
-3.05
-3.21
-3.57
-4.08
-4.64
-5.09
-5.31
-5.23
-4.85
-4.20
-3.32
-2.26
-1.05
0.22
1.40
2.36
2.96
3.21
3.21
3.15
3.18
3.33
3.52
3.58
3.39
2.97
2.41
1.87
1.47
1.30
1.35
1.61
2.03
2.59
3.18
3.69
4.00
4.03
3.78
3.31
2.71
2.10
1.54
1.06
0.67
0.36
0.13
-0.07
-0.22
-0.33
-0.40
-0.45
-0.54
-0.74
-1.11
-1.63
-2.24
-2.84
-3.34
-3.70
-3.97
-4.21
-4.48
-4.82
-5.15
-5.39
-5.42
-5.18
-4.64
-3.83
-2.84
-1.76
-0.67
0.35
1.24
1.92
2.37
2.61
2.71
2.75
2.78
2.79
2.72
2.54
2.26
1.97
1.75
1.70
1.80
1.98
2.19
2.39
2.58
2.75
2.88
2.92
2.85
2.70
2.53
2.38
2.28
2.17
1.98
1.67
1.27
0.86
0.57
0.44
0.45
0.47
0.36
0.03
-0.55
-1.28
-2.00
-2.55
-2.86
-2.99
-3.06
-3.19
-3.42
-3.71
-3.92
-3.98
-3.87
-3.69
-3.52
-3.41
-3.34
-3.21
-2.95
-2.53
-1.97
-1.31
-0.59
0.16
0.92
1.65
2.32
2.88
3.29
3.53
3.60
3.52
3.32
3.04
2.74
2.45
2.16
1.86
1.54
1.23
1.03
1.02
1.26
1.69
2.17
2.50
2.56
2.35
1.99
1.63
1.41
1.33
1.31
1.22
0.98
0.58
0.04
-0.55
-1.13
-1.65
-2.05
-2.29
-2.39
-2.37
-2.33
-2.39
-2.63
-3.05
-3.62
-4.27
-4.94
-5.60
-6.17
-6.57
-6.67
-6.37
-5.65
-4.62
-3.43
-2.27
-1.27
-0.44
0.27
0.92
1.55
2.14
2.63
2.98
3.14
3.14
3.01
2.77
2.49
2.20
1.91
1.67
1.50
1.44
1.54
1.78
2.14
2.56
2.93
3.16
3.22
3.08
2.79
2.42
2.06
1.77
1.62
1.59
1.65
1.69
1.62
1.33
0.79
0.05
-0.74
-1.45
-1.96
-2.26
-2.41
-2.49
-2.59
-2.76
-3.03
-3.38
-3.78
-4.19
-4.54
-4.79
-4.93
-4.97
-4.96
-4.93
-4.86
-4.67
-4.28
-3.62
-2.71
-1.65
-0.58
0.37
1.14
1.72
2.13
2.39
2.53
2.57
2.55
2.53
2.54
2.57
2.57
2.48
2.27
1.99
1.73
1.62
1.71
2.01
2.44
2.90
3.32
3.59
3.67
3.55
3.24
2.83
2.42
2.05
1.71
1.36
0.97
0.54
0.15
-0.17
-0.43
-0.69
-1.02
-1.37
-1.63
-1.69
-1.52
-1.23
-1.08
-1.26
-1.89
-2.83
-3.86
-4.72
-5.28
-5.55
-5.64
-5.67
-5.65
-5.52
-5.17
-4.52
-3.57
-2.41
-1.15
0.09
1.26
2.33
3.28
4.04
4.54
4.71
4.54
4.09
3.47
2.78
2.13
1.61
1.31
1.28
1.55
2.06
2.67
3.23
3.59
3.69
3.52
3.18
2.79
2.48
2.34
2.39
2.54
2.65
2.58
2.24
1.66
0.98
0.37
-0.07
-0.30
-0.39
-0.41
-0.45
-0.55
-0.75
-1.08
-1.52
-2.03
-2.54
-2.97
-3.29
-3.54
-3.74
-3.92
-4.06
-4.13
-4.13
-4.08
-4.03
-3.98
-3.87
-3.59
-2.99
-2.03
-0.78
0.58
1.84
2.78
3.30
3.38
3.13
2.73
2.34
2.10
2.01
2.04
2.10
2.13
2.14
2.17
2.27
2.44
2.60
2.64
2.51
2.20
1.84
1.55
1.45
1.53
1.69
1.81
1.76
1.54
1.20
0.86
0.63
0.50
0.39
0.17
-0.25
-0.89
-1.63
-2.34
-2.86
-3.15
-3.22
-3.16
-3.10
-3.08
-3.14
-3.28
-3.46
-3.69
-3.95
-4.17
-4.27
-4.16
-3.78
-3.14
-2.30
-1.37
-0.46
0.34
0.97
1.41
1.68
1.84
1.93
2.00
2.07
2.10
2.06
1.92
1.68
1.42
1.23
1.21
1.41
1.75
2.10
2.33
2.36
2.25
2.15
2.17
2.32
2.49
2.51
2.28
1.87
1.45
1.18
1.09
1.04
0.84
0.38
-0.27
-0.95
-1.46
-1.72
-1.79
-1.80
-1.86
-2.02
-2.26
-2.58
-3.01
-3.57
-4.26
-4.97
-5.56
-5.93
-6.04
-5.93
-5.67
-5.28
-4.71
-3.89
-2.81
-1.57
-0.36
0.63
1.28
1.60
1.74
1.88
2.14
2.53
2.94
3.27
3.42
3.41
3.30
3.16
3.01
2.82
2.58
2.33
2.16
2.15
2.31
2.54
2.68
2.59
2.23
1.72
1.22
0.87
0.70
0.68
0.70
0.72
0.72
0.73
0.76
0.78
0.71
0.48
0.07
-0.46
-1.00
-1.47
-1.80
-2.00
-2.15
-2.29
-2.49
-2.75
-3.04
-3.37
-3.72
-4.07
-4.35
-4.48
-4.35
-3.91
-3.15
-2.19
-1.16
-0.19
0.60
1.21
1.66
2.02
2.34
2.68
3.02
3.32
3.51
3.53
3.35
3.00
2.58
2.20
1.94
1.83
1.88
2.03
2.24
2.41
2.51
2.51
2.45
2.38
2.34
2.31
2.24
2.04
1.66
1.14
0.61
0.19
-0.06
-0.17
-0.23
-0.35
-0.56
-0.82
-1.03
-1.13
-1.08
-0.91
-0.72
-0.62
-0.73
-1.11
-1.79
-2.72
-3.77
-4.78
-5.59
-6.05
-6.08
-5.63
-4.75
-3.55
-2.18
-0.84
0.34
1.30
2.10
2.84
3.62
4.46
5.29
5.93
6.20
6.01
5.41
4.54
3.60
2.76
2.08
1.53
1.04
0.61
0.29
0.18
0.32
0.66
1.04
1.24
1.12
0.66
-0.01
-0.69
-1.20
-1.46
-1.52
-1.51
-1.57
-1.78
-2.09
-2.41
-2.64
-2.75
-2.80
-2.91
-3.14
-3.49
-3.83
-4.04
-4.05
-3.94
-3.89
-4.02
-4.38
-4.84
-5.17
-5.15
-4.68
-3.80
-2.68
-1.49
-0.36
0.65
1.53
2.25
2.81
3.18
3.35
3.34
3.19
2.99
2.82
2.77
2.85
3.05
3.26
3.40
3.37
3.18
2.89
2.63
2.48
2.48
2.59
2.71
2.77
2.69
2.49
2.19
1.84
1.49
1.14
0.78
0.40
0.01
-0.38
-0.77
-1.15
-1.54
-1.96
-2.37
-2.71
-2.88
-2.86
-2.68
-2.48
-2.43
-2.65
-3.16
-3.89
-4.66
-5.30
-5.66
-5.68
-5.34
-4.70
-3.88
-2.99
-2.11
-1.30
-0.53
0.24
1.01
1.77
2.45
2.97
3.27
3.34
3.18
2.84
2.35
1.84
1.42
1.21
1.27
