1495784258.00
64.000000
-0.00
-0.00
-0.00
-0.00
-0.00
-0.00
-0.00
-0.00
-0.00
-0.00
0.00
0.01
0.01
-0.00
-0.03
-0.05
-0.05
0.00
0.13
0.36
0.66
1.01
1.37
1.72
2.06
2.40
2.79
3.24
3.80
4.42
5.06
5.66
6.20
6.68
7.15
7.68
8.31
9.14
10.09
11.04
11.88
12.56
13.14
13.76
14.65
15.96
17.91
20.32
22.90
25.38
27.58
29.57
31.68
34.32
37.81
42.54
48.14
54.10
59.84
65.01
69.64
74.20
79.36
85.62
93.52
102.58
112.05
121.09
129.13
136.17
142.80
150.25
157.20
165.90
176.99
190.64
205.72
219.35
227.16
224.39
207.57
175.72
131.24
78.05
20.67
-37.53
-94.93
-151.38
-207.23
-262.48
-316.46
-367.66
-414.90
-457.05
-493.15
-522.19
-543.02
-554.41
-555.22
-544.77
-522.78
-489.91
-447.43
-397.21
-341.59
-283.21
-224.74
-168.55
-116.43
-69.21
-27.03
10.59
44.16
73.93
99.63
120.60
136.16
145.87
149.71
148.13
142.26
134.25
127.23
124.85
129.94
143.08
161.73
180.71
194.12
197.84
191.23
177.14
160.39
145.47
134.80
128.35
124.35
120.62
115.55
108.44
99.32
88.64
77.09
65.38
54.27
44.67
37.26
32.65
31.11
32.30
35.11
37.76
38.38
35.69
29.66
21.51
13.20
6.53
2.42
0.59
-0.02
-0.71
-2.32
-4.96
-8.14
-11.12
-13.15
-13.84
-13.15
-11.44
-9.41
-7.89
-7.55
-8.54
-10.24
-11.39
-10.55
-6.98
-1.28
4.76
9.12
10.90
11.20
12.71
18.22
28.72
42.34
54.82
61.34
58.63
46.32
26.81
4.11
-17.74
-35.77
-48.21
-54.35
-54.22
-48.53
-38.82
-27.27
-16.24
-7.70
-2.71
-1.18
-2.14
-4.20
-6.14
-7.19
-7.20
-6.42
-5.21
-3.89
-2.59
-1.37
-0.18
1.00
2.19
3.34
4.38
5.12
5.31
4.73
3.41
1.68
0.16
-0.50
0.07
1.73
3.88
5.69
6.52
6.14
4.74
2.81
0.95
-0.29
-0.46
0.69
3.19
6.68
10.46
13.60
15.20
14.68
12.13
8.23
3.97
0.33
-2.18
-3.67
-4.78
-6.27
-8.59
-11.76
-15.44
-19.10
-22.26
-24.61
-26.12
-26.87
-26.90
-26.19
-24.70
-22.50
-19.74
-16.66
-13.36
-9.73
-5.56
-0.77
4.43
9.45
13.57
16.24
17.34
17.16
16.20
14.86
13.34
11.68
10.00
8.61
7.87
7.82
8.15
8.27
7.64
6.08
3.92
1.83
0.42
0.00
0.40
1.19
1.80
1.75
0.73
-1.34
-4.34
-7.94
-11.70
-15.24
-18.22
-20.48
-22.08
-23.24
-24.25
-25.44
-27.05
-28.92
-31.03
-33.36
-35.84
-38.37
-40.67
-42.27
-42.50
-40.57
-35.73
-27.55
-16.02
-1.79
13.81
28.88
41.36
49.54
52.51
50.43
44.30
35.64
25.95
16.35
7.55
-0.12
-6.52
-11.72
-16.11
-20.21
-24.43
-28.60
-31.78
-32.41
-29.02
-20.90
-8.59
6.24
21.36
34.78
45.20
52.11
55.57
55.89
53.49
48.91
42.86
36.11
29.38
23.18
17.66
12.71
8.18
3.99
0.19
-3.08
-5.84
-8.30
-10.87
-13.93
-17.56
-21.48
-25.07
-27.64
-28.72
-28.17
-26.18
-23.13
-19.45
-15.50
-11.64
-8.21
-5.60
-4.15
-4.08
-5.48
-8.17
-11.79
-15.76
-19.41
-22.14
-23.51
-23.46
-22.32
-20.65
-19.02
-17.74
-16.80
-15.94
-14.84
-13.36
-11.55
-9.66
-7.89
-6.25
-4.54
-2.43
0.39
3.98
8.17
12.61
16.88
20.70
23.94
26.61
28.84
30.73
32.37
33.78
34.99
36.03
36.94
37.79
38.66
39.60
40.55
41.35
41.75
41.45
40.23
38.06
35.11
31.64
27.95
24.25
20.65
17.21
13.90
10.70
7.47
4.05
0.28
-3.88
-8.27
-12.52
-16.18
-18.90
-20.55
-21.25
-21.25
-20.79
-20.00
-18.91
-17.56
-16.01
-14.41
-12.93
-11.70
-10.78
-10.08
-9.49
-8.91
-8.29
-7.47
-6.29
-4.59
-2.37
0.15
2.52
4.17
4.60
3.60
1.59
-0.59
-2.09
-2.35
-1.38
0.38
2.24
3.58
3.95
3.58
3.03
2.94
3.70
5.38
7.77
10.39
12.69
14.09
14.79
15.34
16.56
19.15
23.63
30.45
39.98
52.52
64.64
72.58
73.25
65.87
52.19
35.40
18.98
5.79
-2.49
-5.94
-5.71
-3.64
-1.38
0.05
0.57
0.99
1.33
1.31
0.40
-1.47
-3.91
-6.21
-7.84
-8.51
-8.28
-7.64
-7.14
-7.29
-8.17
-9.67
-11.11
-12.38
-13.59
-15.02
-17.08
-19.96
-23.46
-26.72
-28.46
-28.03
-25.21
-20.25
-13.78
-7.02
-1.17
2.99
5.56
7.29
8.06
7.51
5.21
0.93
-5.61
-14.38
-24.73
-35.46
-45.46
-55.51
-66.84
-80.15
-94.83
-109.50
-122.25
-131.30
-135.60
-128.05
-107.63
-79.59
-52.28
-31.55
-19.33
-14.87
-16.77
-23.72
-34.00
-45.96
-56.33
-63.14
-63.36
-57.05
-47.75
-40.49
-38.39
-40.77
-44.25
-44.16
-37.22
-23.60
-7.30
6.69
14.04
14.45
11.81
11.28
16.82
29.58
47.64
67.05
83.96
96.16
103.72
107.91
109.54
108.69
105.77
101.52
97.12
93.76
92.09
92.22
93.38
94.04
92.49
88.32
81.97
74.68
68.02
63.54
62.92
67.55
78.05
88.88
94.43
90.43
76.53
56.02
33.64
13.52
-2.15
-13.60
-22.85
-30.59
-38.31
-46.09
-52.93
-57.82
-60.26
-60.75
-60.48
-60.65
-61.39
-62.11
-62.31
-61.65
-60.29
-58.57
-57.07
-56.25
-56.11
-55.88
-54.84
-52.90
-50.12
-46.77
-43.08
-39.42
-36.03
-32.55
-27.89
-20.91
-11.36
0.74
14.82
30.10
45.51
58.34
66.04
67.77
68.34
70.03
73.75
77.75
80.97
82.57
82.01
79.45
75.40
70.38
64.01
56.11
46.65
36.10
24.94
13.66
2.82
-7.18
-16.29
-25.20
-34.33
-43.85
-53.59
-63.60
-74.04
-84.85
-95.38
-104.41
-110.57
-112.46
-109.36
-101.59
-90.68
-78.79
-67.83
-58.95
-52.42
-47.95
-44.82
-42.19
-39.21
-35.23
-29.87
-23.10
-15.23
-6.90
1.13
8.24
14.06
18.30
20.56
20.22
16.48
8.79
-2.45
-15.20
-25.58
-28.83
-21.01
-1.13
27.85
59.57
86.63
103.52
108.62
104.37
95.42
86.16
78.86
73.49
68.93
64.47
60.64
58.72
59.68
63.27
68.03
71.96
73.34
71.34
65.94
57.48
46.31
32.77
17.38
1.08
-15.01
-29.96
-43.23
-54.65
-64.21
-71.97
-77.97
-82.50
-86.09
-89.68
-94.25
-100.17
-106.74
-112.46
-115.55
-114.66
-109.23
-99.31
-85.65
-69.59
-52.55
-35.57
-19.18
-3.54
11.45
25.77
39.34
51.68
61.09
65.34
63.60
57.64
50.57
45.75
43.29
42.37
42.15
42.37
43.00
44.64
47.97
52.67
57.40
60.54
61.34
60.03
57.84
56.09
55.68
56.64
57.27
54.89
47.33
34.21
16.79
-2.68
-22.63
-42.48
-62.37
-80.76
-95.34
-104.20
-107.83
-109.36
-112.03
-117.47
-127.70
-138.55
-145.45
-145.85
-139.56
-128.97
-118.65
-109.32
-101.59
-94.38
-84.97
-71.82
-55.90
-39.79
-27.35
-23.39
-28.88
-40.50
-52.61
-59.29
-57.36
-47.01
-29.38
-7.02
14.33
30.91
41.58
46.22
46.08
43.65
42.81
50.24
71.20
103.74
143.83
187.03
227.79
261.62
286.20
288.42
262.36
232.15
209.10
189.19
171.23
154.42
138.43
123.20
108.48
95.74
85.47
73.45
57.16
37.64
16.84
-2.91
-19.89
-33.83
-44.40
-52.56
-62.63
-76.66
-93.03
-109.15
-122.60
-132.29
-138.74
-142.40
-143.77
-144.51
-144.31
-140.85
-132.18
-117.60
-98.05
-75.77
-52.94
-31.46
-13.42
0.34
10.25
17.01
21.18
23.03
22.63
20.28
16.70
12.63
9.07
7.16
7.57
10.40
15.13
20.86
26.60
31.77
35.98
39.06
40.95
41.73
41.60
40.66
38.88
36.27
33.36
30.86
29.48
29.63
31.29
33.80
35.84
35.57
31.32
22.73
10.44
-3.97
-18.49
-30.89
-38.86
-40.45
-35.62
-28.65
-23.50
-23.33
-29.96
-44.64
-66.90
-93.81
-120.14
-139.83
-148.19
-142.88
-125.33
-99.74
-70.96
-42.00
-13.03
17.47
50.05
81.20
105.56
118.60
119.56
111.05
96.93
80.58
64.04
49.69
36.37
23.73
11.80
1.01
-8.70
-17.70
-26.03
-33.76
-40.89
-46.98
-51.11
-54.96
-58.66
-60.31
-58.40
-52.19
-42.17
-30.18
-18.47
-8.15
0.84
9.67
18.54
26.49
32.18
36.28
38.64
38.97
37.53
33.76
28.50
22.81
17.55
13.47
10.98
9.90
9.87
10.59
11.73
13.26
14.98
16.49
17.53
18.05
18.04
17.71
17.43
17.43
17.97
18.96
19.99
20.56
20.16
18.25
14.61
9.33
2.69
-4.85
-12.86
-20.95
-28.57
-34.97
-39.45
-41.44
-40.84
-38.18
-34.38
-30.43
-26.95
-24.03
-21.27
-18.31
-15.08
-11.97
-9.69
-8.80
-9.45
-11.23
-13.36
-15.01
-15.66
-15.16
-13.73
-11.66
-9.16
-6.29
-3.01
0.71
4.80
9.09
13.39
17.53
21.44
25.07
28.42
31.43
34.04
36.18
37.77
38.79
39.23
39.17
38.81
38.49
38.62
39.59
41.75
45.23
49.95
55.43
60.90
65.30
67.54
66.58
61.81
53.22
41.46
27.68
13.21
-0.73
-13.28
-23.99
-32.93
-40.34
-46.52
-51.58
-55.57
-58.46
-60.08
-60.09
-57.99
-53.72
-47.64
-40.60
-33.66
-27.88
-23.97
-22.03
-21.56
-21.75
-22.48
-24.10
-27.15
-31.66
-37.02
-42.12
-45.71
-46.71
-44.56
-40.16
-35.19
-31.63
-31.01
-34.20
-41.42
-52.22
-65.39
-75.13
-76.55
-68.11
-52.95
-36.10
-21.28
-9.88
-1.72
3.91
7.69
8.89
7.82
5.48
3.74
4.44
8.35
14.89
22.60
30.00
35.76
39.08
40.02
39.71
39.53
40.35
42.41
45.65
50.02
55.24
60.85
64.53
64.53
60.45
53.75
46.95
42.16
40.05
39.71
39.34
37.58
34.39
30.72
27.61
25.19
22.47
17.79
10.44
-0.10
-12.94
-26.01
-37.16
-45.06
-49.58
-51.57
-52.26
-52.45
-52.38
-51.79
-50.38
-48.37
-46.48
-45.50
-44.95
-43.87
-40.67
-33.96
-23.33
-9.80
4.44
17.07
26.57
32.76
36.38
38.62
40.24
41.38
41.80
41.18
39.62
37.67
36.18
35.81
36.84
38.98
41.51
43.56
44.42
43.80
41.94
39.44
36.85
34.58
32.81
31.49
30.55
29.80
29.07
28.27
27.41
26.25
24.68
22.72
20.58
18.77
17.44
16.57
16.05
15.57
14.26
11.43
6.93
1.29
-4.06
-8.34
-11.14
-12.25
-11.97
-11.45
-11.84
-13.77
-17.22
-20.91
-24.38
-27.36
-29.51
-31.02
-33.30
-37.77
-45.19
-55.29
-66.11
-77.04
-88.18
-99.97
-106.60
-104.09
-92.22
-74.83
-63.35
-58.58
-59.50
-65.36
-72.15
-77.75
-81.50
-83.19
-82.84
-80.68
-76.24
-70.60
-65.01
-59.97
-55.80
-52.90
-51.32
-50.68
-50.25
-48.59
-45.70
-42.07
-38.11
-34.34
-31.27
-29.15
-27.84
-26.85
-24.96
-21.50
-15.93
-7.75
3.13
16.49
32.16
50.30
71.33
95.74
122.78
150.32
175.14
193.73
203.59
204.08
196.56
183.73
168.92
154.51
141.34
128.70
115.13
99.37
80.98
60.29
38.12
15.86
-5.29
-24.57
-41.85
-57.09
-69.99
-80.02
-86.81
-90.39
-90.18
-85.59
-76.36
-63.18
-47.59
-31.65
-17.56
-7.20
-1.38
2.00
6.64
16.48
33.64
57.88
87.27
119.10
150.43
171.67
175.29
159.73
131.22
98.79
68.84
43.70
23.27
6.43
-7.70
-17.00
-20.84
-19.35
-14.66
-10.23
-9.22
-13.18
-22.42
-36.21
-52.52
-69.49
-86.08
-102.99
-121.53
-142.01
-159.27
-167.75
-164.56
-150.00
-126.73
-97.79
-66.39
-36.18
-11.01
5.74
12.95
11.27
3.85
-4.76
-10.41
-11.21
-7.69
-1.83
4.19
7.78
6.44
-1.19
-14.77
-31.79
-47.93
-58.14
-58.39
-47.59
-28.66
-7.41
10.29
21.16
25.64
27.02
29.23
34.75
43.53
53.35
61.36
65.67
65.87
62.57
56.49
47.99
36.98
23.57
8.41
-7.05
-20.82
-30.98
-36.37
-37.10
-34.61
-31.16
-28.95
-29.30
-32.17
-36.38
-40.37
-43.10
-44.55
-45.67
-47.77
-51.82
-57.96
-65.42
-72.97
-79.37
-83.96
-86.79
-88.49
-89.80
-91.09
-92.06
-91.80
-89.11
-82.85
-72.15
-56.52
-35.93
-10.93
17.14
46.03
73.04
95.64
112.31
122.86
128.17
129.43
127.40
122.10
113.30
101.33
87.53
74.16
63.66
57.65
56.41
58.88
63.38
68.23
72.29
74.86
75.54
74.01
70.14
64.07
56.48
48.45
41.30
36.18
33.70
33.73
35.51
37.80
39.05
37.86
33.34
25.53
15.54
5.01
-4.58
-12.02
-16.69
-18.68
-18.52
-16.75
-13.53
-8.36
-0.85
8.53
19.07
29.83
39.63
47.47
53.02
56.78
60.51
65.79
73.04
82.43
93.67
105.48
115.85
122.60
123.97
119.78
110.44
96.17
78.55
59.90
42.13
26.06
11.50
-6.78
-29.93
-51.68
-70.72
-87.86
-102.61
-114.39
-123.52
-130.49
-135.37
-136.53
-132.19
-122.10
-106.41
-85.96
-62.53
-39.01
-17.94
-0.64
13.60
25.74
35.29
41.08
41.65
35.40
20.22
-4.89
-39.23
-79.78
-122.82
-165.87
-207.79
-248.51
-279.53
-292.00
-281.61
-252.40
-213.20
-171.53
-130.74
-90.49
-49.20
-6.79
32.55
65.32
87.89
98.76
99.67
94.80
89.08
86.72
89.99
99.18
109.26
115.74
114.76
104.65
86.98
65.94
49.27
38.88
34.05
32.43
31.40
29.43
25.58
20.78
16.47
13.67
11.92
9.97
6.16
-0.59
-10.20
-21.29
-31.68
-39.70
-44.84
-48.15
-50.93
-54.26
-58.18
-61.76
-63.54
-62.30
-58.12
-52.43
-47.50
-44.88
-44.85
-46.27
-47.26
-46.07
-41.63
-33.98
-24.20
-13.99
-5.01
1.30
4.12
3.33
-0.44
-6.01
-12.18
-18.32
-25.00
-33.86
-46.98
-65.53
-88.43
-111.70
-129.17
-134.23
-121.99
-91.06
-44.08
12.95
72.25
126.02
168.02
194.48
204.56
200.14
185.21
164.76
143.50
124.88
110.66
101.13
95.78
93.68
93.80
95.03
96.26
96.66
95.96
94.67
93.87
94.78
98.15
103.90
111.03
118.04
123.54
126.68
127.50
126.73
125.49
124.72
124.91
126.00
127.51
128.77
129.14
128.18
125.75
121.98
117.17
111.26
103.35
91.54
73.25
46.25
9.76
-34.82
-84.16
-134.03
-180.47
-220.67
-253.05
-277.09
-293.07
-301.99
-305.64
-306.31
-306.01
-305.46
-303.54
-297.55
-284.44
-262.38
-231.89
-196.07
-159.74
-127.92
-104.17
-89.45
-82.12
-78.91
-76.49
-72.69
-66.85
-58.91
-48.28
-33.02
-10.45
21.36
61.95
107.87
153.54
193.25
223.01
241.55
250.08
251.11
247.28
240.61
232.39
223.49
214.71
206.93
200.81
196.16
191.25
182.55
165.60
136.63
94.69
42.87
-12.00
-61.43
-98.27
-119.10
-125.07
-120.68
-111.45
-101.64
-93.19
-86.03
-79.28
-72.42
-65.76
-60.06
-56.07
-54.21
-54.79
-58.33
-65.54
-76.68
-90.82
-105.52
-117.43
-123.57
-122.67
-115.70
-105.24
-94.20
-84.55
-76.84
-70.69
-65.49
-61.08
-57.59
-54.89
-52.14
-47.88
-40.70
-30.11
-17.06
-3.69
7.48
14.58
17.19
16.30
13.77
11.38
10.12
9.95
10.21
10.20
9.64
8.79
8.10
7.88
7.98
7.87
6.91
4.64
1.06
-3.43
-8.16
-12.47
-15.93
-18.44
-20.25
-21.87
-23.92
-26.95
-31.29
-36.86
-43.22
-49.50
-54.58
-57.30
-56.74
-52.57
-45.36
-36.42
-27.42
-19.53
-12.80
-5.90
3.44
17.43
37.15
61.95
89.58
116.96
141.14
159.94
172.30
178.16
178.27
174.02
167.12
159.09
150.79
142.05
131.78
118.49
101.03
79.24
54.26
28.16
3.39
-18.07
-35.24
-48.23
-57.92
-65.38
-71.27
-75.48
-77.21
-75.54
-70.05
-61.26
-50.54
-39.60
-29.90
-22.16
-16.45
-12.47
-9.93
-8.74
-8.86
-10.15
-12.14
-14.14
-15.49
-15.85
-15.37
-14.59
-14.22
-14.79
-16.44
-18.88
-21.50
-23.62
-24.68
-24.46
-23.12
-21.16
-19.21
-17.85
-17.41
-17.91
-19.14
-20.77
-22.52
-24.19
-25.69
-26.92
-27.80
-28.24
-28.19
-27.74
-27.00
-26.11
-25.15
-24.11
-22.91
-21.39
-19.35
-16.55
-12.77
-7.83
-1.68
5.59
13.90
23.18
33.48
44.84
57.06
69.54
81.27
90.93
97.29
99.47
97.09
90.32
79.70
66.10
50.65
34.67
19.63
6.81
-2.96
-9.56
-13.58
-16.03
-17.93
-19.82
-21.61
-22.61
-21.94
-19.01
-13.79
-7.00
0.21
6.58
11.19
13.75
14.58
14.40
13.99
13.88
14.17
14.58
14.61
13.76
11.69
8.31
3.81
-1.33
-6.49
-10.99
-14.26
-16.04
-16.35
-15.51
-14.00
-12.38
-11.23
-11.15
-12.75
-16.44
-22.24
-29.61
-37.48
-44.53
-49.65
-52.27
-52.53
-51.13
-49.03
-47.02
-45.49
-44.32
-42.93
-40.53
-36.32
-29.82
-21.02
-10.35
1.40
13.30
24.49
34.26
42.11
47.76
51.11
52.22
51.35
48.77
44.71
39.33
32.76
25.22
17.10
8.96
1.41
-5.10
-10.39
-14.61
-18.02
-20.86
-23.17
-24.69
-25.05
-23.91
-21.16
-17.01
-11.98
-6.78
-2.21
1.03
2.38
1.64
-0.95
-4.61
-8.06
-9.94
-9.23
-5.68
-0.04
6.22
11.43
14.40
14.84
13.41
11.37
9.97
10.02
11.65
14.43
17.65
20.70
23.21
25.09
26.43
27.28
27.68
27.63
27.23
26.78
26.74
27.53
29.39
32.12
35.16
37.76
39.25
39.36
38.26
36.45
34.60
33.26
32.83
33.48
35.21
37.80
40.86
43.79
45.95
46.74
45.72
42.62
37.22
29.35
19.03
6.64
-6.89
-20.15
-31.62
-40.14
-45.37
-47.80
-48.43
-48.23
-47.75
-46.92
-45.36
-42.70
-38.95
-34.53
-30.06
-26.08
-22.78
-20.00
-17.34
-14.49
-11.35
-8.12
-5.12
-2.67
-0.95
0.03
0.29
-0.12
-1.14
-2.67
-4.44
-6.08
-7.19
-7.60
-7.45
-7.16
-7.24
-8.01
-9.50
-11.50
-13.76
-16.16
-18.71
-21.45
-24.25
-26.82
-28.76
-29.84
-30.13
-30.04
-30.14
-30.86
-32.32
-34.17
-35.79
-36.48
-35.74
-33.36
-29.43
-24.21
-17.90
-10.63
-2.41
6.72
16.62
26.92
37.04
46.29
53.89
59.05
61.06
59.43
54.12
45.70
35.30
24.35
14.09
5.24
-2.18
-8.58
-14.42
-19.82
-24.53
-28.12
-30.34
-31.33
-31.60
-31.64
-31.58
-30.98
-28.95
-24.62
-17.60
-8.21
2.62
13.76
24.28
33.64
41.66
48.30
53.37
56.62
57.81
56.97
54.54
51.18
47.53
43.89
40.12
35.74
30.21
23.16
14.60
4.85
-5.49
-15.68
-25.04
-33.00
-39.28
-43.85
-46.96
-49.05
-50.66
-52.32
-54.42
-57.12
-60.30
-63.58
-66.36
-68.03
-68.04
-65.98
-61.62
-54.87
-45.77
-34.52
-21.58
-7.71
6.07
18.65
28.99
36.45
40.82
42.32
41.48
38.85
34.96
30.19
24.91
19.63
15.09
12.23
12.02
15.08
21.43
30.32
40.45
50.26
58.38
63.97
66.78
67.02
65.23
62.00
57.92
53.53
49.21
45.11
41.01
36.37
30.55
23.08
13.98
3.83
-6.39
-15.64
-23.13
-28.48
-31.76
-33.34
-33.82
-33.88
-34.24
-35.47
-37.85
-41.31
-45.41
-49.58
-53.31
-56.30
-58.52
-60.08
-61.16
-61.95
-62.64
-63.39
-64.30
-65.23
-65.69
-64.85
-61.71
-55.38
-45.42
-31.99
-15.94
1.38
18.34
33.37
45.28
53.42
57.75
58.73
57.11
53.67
49.12
43.99
38.67
33.45
28.56
24.13
20.23
16.93
14.34
12.69
12.32
13.50
16.24
20.19
24.66
28.83
32.08
34.13
35.16
35.62
36.03
36.71
37.71
38.80
39.56
39.51
38.23
35.45
31.15
25.61
19.36
13.03
7.17
2.07
-2.28
-6.18
-9.98
-13.99
-18.36
-23.03
-27.86
-32.69
-37.38
-41.84
-45.94
-49.47
-52.14
-53.72
-54.11
-53.46
-52.19
-50.82
-49.77
-49.13
-48.57
-47.37
-44.54
-39.15
-30.56
-18.76
-4.47
10.81
25.06
36.20
42.58
43.46
39.14
30.83
20.17
8.80
-1.96
-11.21
-18.34
-22.94
-24.80
-24.02
-21.13
-17.01
-12.59
-8.53
-4.98
-1.59
2.23
6.93
12.60
18.92
25.29
30.99
35.41
38.18
39.17
38.53
36.63
33.85
30.49
26.61
22.16
16.98
11.05
4.53
-2.23
-8.77
-14.60
-19.22
-22.19
-23.22
-22.31
-19.84
-16.54
-13.33
-10.95
-9.80
-9.85
-10.79
-12.22
-13.84
-15.49
-17.11
-18.67
-20.14
-21.51
-22.80
-24.06
-25.32
-26.52
-27.40
-27.54
-26.42
-23.55
-18.69
-11.98
-3.95
4.55
12.52
19.10
23.74
26.28
26.88
25.87
23.57
20.22
16.01
11.14
5.86
0.45
-4.85
-9.91
-14.64
-18.86
-22.12
-23.61
-22.38
-17.60
-9.05
2.76
16.63
31.06
44.68
56.51
66.12
73.43
78.60
81.80
83.15
82.67
80.25
75.77
69.12
60.36
49.85
38.25
26.44
15.24
5.27
-3.23
-10.38
-16.44
-21.73
-26.50
-30.85
-34.83
-38.47
-41.87
-45.14
-48.42
-51.79
-55.22
-58.60
-61.77
-64.61
-67.09
-69.20
-70.91
-72.08
-72.49
-71.90
-70.06
-66.74
-61.66
-54.44
-44.65
-32.04
-16.85
0.06
17.25
33.03
45.88
54.86
59.72
60.82
58.79
54.37
48.23
40.92
32.99
25.00
17.52
11.11
6.24
3.26
2.34
3.45
6.39
10.80
16.21
22.14
28.14
33.86
39.06
43.60
47.47
50.76
53.58
56.00
57.88
58.89
58.54
56.34
52.01
45.57
37.44
28.26
18.78
9.70
1.49
-5.62
-11.69
-16.96
-21.79
-26.50
-31.24
-36.00
-40.64
-44.97
-48.88
-52.33
-55.36
-58.02
-60.35
-62.41
-64.28
-66.09
-67.93
-69.71
-71.14
-71.68
-70.69
-67.61
-62.11
-54.18
-44.11
-32.42
-19.74
-6.78
5.69
16.87
26.02
32.66
36.64
38.26
38.09
36.78
34.80
32.36
29.44
25.96
21.94
17.62
13.53
10.34
8.81
9.52
12.73
18.30
25.66
33.92
42.12
49.44
55.30
59.45
61.90
62.81
62.49
61.29
59.57
57.56
55.22
52.27
48.25
42.80
35.81
27.57
18.61
9.47
0.51
-8.21
-16.87
-25.66
-34.67
-43.85
-52.95
-61.68
-69.70
-76.64
-82.12
-85.79
-87.43
-87.07
-85.05
-81.94
-78.37
-74.68
-70.76
-66.03
-59.64
-50.90
-39.57
-26.01
-11.12
3.95
18.07
30.34
40.14
47.15
51.27
52.63
51.60
48.69
44.49
39.56
34.32
29.06
23.89
18.80
13.72
8.62
3.53
-1.41
-6.05
-10.23
-13.70
-15.92
-16.01
-12.80
-5.26
6.92
22.93
40.74
57.70
71.37
80.33
84.65
85.65
85.33
85.51
87.27
90.70
95.09
99.28
102.20
103.23
102.34
100.01
96.98
93.86
90.82
87.44
82.82
75.85
65.59
51.63
34.33
14.77
-5.35
-23.79
-38.06
-46.08
-47.12
-42.63
-36.33
-32.94
-36.17
-46.84
-62.33
-77.82
-88.64
-92.61
-90.68
-85.92
-81.36
-78.15
-75.05
-69.47
-59.22
-43.98
-25.54
-6.96
8.79
19.65
24.49
22.68
13.48
-3.90
-29.48
-61.67
-96.73
-129.41
-154.37
-168.02
-169.57
-161.04
-146.12
-128.58
-111.16
-95.16
-80.97
-68.64
-58.26
-49.89
-43.25
-37.53
-31.65
-24.90
-17.62
-11.47
-9.04
-12.84
-24.32
-43.36
-68.26
-96.19
-123.87
-148.00
-165.71
-174.81
-174.16
-163.84
-145.05
-119.76
-90.16
-58.29
-25.94
5.31
34.02
59.08
79.89
96.46
109.27
118.92
125.85
130.31
132.51
132.95
132.43
131.92
132.15
133.32
134.95
136.19
136.20
134.64
131.81
128.56
125.91
124.51
124.36
124.70
124.38
122.41
118.33
112.37
105.23
97.53
89.46
80.67
70.40
57.87
42.53
24.13
2.75
-21.14
-46.41
-70.99
-91.94
-106.17
-111.49
-107.64
-96.49
-81.28
-65.35
-50.98
-38.94
-29.00
-20.67
-13.88
-9.12
-6.77
-6.50
-7.15
-7.21
-5.57
-2.04
2.70
7.41
10.61
11.31
9.41
5.55
0.92
-3.11
-5.52
-5.99
-5.31
-5.82
-10.26
-20.56
-37.20
-58.84
-82.64
-105.16
-123.20
-134.74
-140.06
-140.40
-136.99
-130.88
-122.68
-112.53
-100.13
-84.47
-64.12
-39.00
-9.79
22.06
53.80
82.07
104.16
116.77
117.97
114.14
110.22
106.22
101.35
94.19
83.89
70.82
56.43
42.81
31.63
22.42
13.97
5.63
-2.64
-10.04
-15.24
-16.89
-14.01
-6.47
4.19
15.92
27.21
37.00
44.83
50.67
54.68
57.20
58.55
58.61
57.40
55.36
52.79
49.69
45.65
40.12
32.91
24.49
15.65
7.48
0.84
-4.09
-7.89
-11.52
-15.83
-21.13
-27.22
-33.68
-40.20
-46.63
-53.07
-59.60
-66.13
-72.29
-77.53
-81.33
-83.39
-83.78
-82.91
-81.42
-79.99
-79.13
-79.04
-79.45
-79.66
-78.59
-75.00
-67.71
-55.92
-39.37
-18.51
5.57
31.23
56.53
79.48
98.24
111.41
118.20
118.48
112.71
101.79
86.80
68.86
49.06
28.46
8.16
-10.73
-27.19
-40.44
-50.01
-55.73
-57.65
-55.97
-50.98
-43.13
-33.09
-21.70
-9.82
1.85
13.00
23.75
34.52
45.78
57.63
69.64
80.75
89.59
94.87
95.80
92.38
85.41
76.19
66.09
56.17
46.89
38.18
29.57
20.53
10.70
0.02
-11.26
-22.67
-33.63
-43.60
-52.17
-59.09
-64.30
-67.89
-70.02
-70.94
-70.94
-70.33
-69.44
-68.53
-67.70
-66.89
-65.81
-64.02
-61.01
-56.26
-49.32
-39.90
-27.98
-13.89
1.63
17.43
32.11
44.26
52.62
56.29
54.75
47.87
36.01
20.04
1.36
-18.18
-36.59
-52.17
-63.79
-71.13
-74.43
-74.21
-70.82
-64.29
-54.34
-40.75
-23.66
-3.83
17.34
38.13
56.79
71.97
82.95
89.90
93.86
96.44
99.30
103.44
108.72
113.83
116.80
115.87
110.27
100.51
88.08
74.62
61.27
48.37
35.59
22.43
8.71
-5.31
-19.05
-31.90
-43.46
-53.67
-62.75
-71.08
-78.95
-86.38
-93.08
-98.57
-102.40
-104.47
-105.10
-104.87
-104.32
-103.58
-102.28
-99.73
-95.16
-88.04
-78.08
-65.15
-49.23
-30.46
-9.30
13.21
35.46
55.54
71.62
82.45
87.58
87.38
82.77
74.93
65.01
54.02
42.83
32.18
22.73
15.01
9.36
5.89
4.59
5.40
8.33
13.40
20.47
29.03
38.12
46.45
52.77
56.28
56.86
55.14
52.24
49.36
47.41
46.64
46.60
46.26
44.37
39.91
32.48
22.50
11.15
-0.06
-9.76
-17.10
-21.92
-24.67
-26.13
-27.17
-28.56
-30.91
-34.65
-40.02
-46.94
-55.00
-63.42
-71.29
-77.75
-82.31
-84.92
-85.98
-86.22
-86.45
-87.34
-89.14
-91.49
-93.26
-92.71
-87.79
-76.78
-58.82
-34.37
-5.24
25.75
55.37
80.70
99.69
111.46
116.27
115.20
109.74
101.33
91.13
79.89
68.14
56.32
44.90
34.40
25.31
17.95
12.47
8.89
7.23
7.50
9.64
13.46
18.43
23.67
28.12
30.83
31.29
29.67
26.64
23.17
19.99
17.39
15.19
12.90
10.06
6.44
2.06
-2.82
-7.85
-12.67
-16.88
-20.14
-22.23
-23.15
-23.18
-22.83
-22.71
-23.39
-25.25
-28.47
-32.95
-38.39
-44.37
-50.37
-55.88
-60.47
-63.79
-65.63
-65.95
-65.01
-63.31
-61.48
-59.93
-58.63
-56.87
-53.42
-46.94
-36.41
-21.60
-3.12
17.72
39.20
59.51
76.97
90.29
98.65
101.85
100.28
94.75
86.20
75.44
63.00
49.24
34.61
19.81
5.83
-6.32
-15.92
-22.74
-27.04
-29.22
-29.63
-28.35
-25.42
-21.07
-15.95
-11.09
-7.53
-5.96
-6.37
-8.06
-9.99
-11.12
-10.71
-8.39
-4.08
2.02
9.44
17.39
24.76
30.35
33.24
33.12
30.44
26.22
21.61
17.49
14.19
11.52
9.03
6.30
3.11
-0.56
-4.68
-9.24
-14.33
-20.01
-26.23
-32.69
-38.89
-44.30
-48.53
-51.50
-53.46
-54.88
-56.24
-57.81
-59.53
-60.99
-61.50
-60.19
-56.09
-48.32
-36.34
-20.20
-0.78
20.27
40.79
58.65
72.23
80.76
84.18
82.88
77.33
67.96
55.31
40.28
24.19
8.66
-4.86
-15.49
-23.05
-27.89
-30.50
-31.12
-29.62
-25.68
-19.16
-10.44
-0.39
9.72
18.70
25.67
30.32
32.90
34.04
34.53
35.08
36.07
37.50
38.98
39.84
39.41
37.21
33.22
27.86
21.91
16.18
11.24
7.23
3.91
0.84
-2.34
-5.77
-9.39
-13.10
-16.97
-21.27
-26.36
-32.44
-39.29
-46.23
-52.30
-56.64
-58.86
-59.24
-58.69
-58.35
-59.10
-61.11
-63.71
-65.55
-65.12
-61.20
-53.15
-40.98
-25.24
-6.80
13.13
33.14
51.62
67.01
78.13
84.38
85.91
83.40
77.70
69.55
59.39
47.56
34.49
20.83
7.47
-4.70
-14.97
-22.88
-28.16
-30.52
-29.65
-25.27
-17.44
-6.74
5.70
18.39
29.95
39.45
46.57
51.49
54.67
56.48
57.01
56.08
53.25
48.13
40.50
30.59
19.11
7.14
-4.12
-13.64
-20.85
-25.75
-28.78
-30.63
-32.01
-33.47
-35.36
-37.86
-41.05
-44.87
-49.12
-53.41
-57.18
-59.83
-60.86
-60.04
-57.60
-54.21
-50.82
-48.35
-47.41
-47.96
-49.27
-50.01
-48.67
-43.92
-35.08
-22.30
-6.52
10.77
27.88
43.29
55.85
64.97
70.52
72.70
71.84
68.26
62.22
54.00
44.00
32.79
21.10
9.71
-0.70
-9.71
-17.10
-22.79
-26.72
-28.72
-28.59
-26.21
-21.72
-15.62
-8.69
-1.79
4.33
9.31
13.22
16.50
19.78
23.65
28.41
33.97
39.79
44.99
48.61
49.82
48.26
44.11
38.03
31.02
24.07
17.92
12.95
9.13
6.16
3.60
1.00
-1.99
-5.59
-9.87
-14.77
-20.13
-25.80
-31.60
-37.39
-42.99
-48.12
-52.42
-55.52
-57.23
-57.63
-57.12
-56.28
-55.72
-55.76
-56.33
-56.96
-56.82
-54.93
-50.35
-42.43
-31.06
-16.77
-0.81
15.12
29.21
40.03
46.82
49.68
49.35
46.87
43.22
39.02
34.54
29.82
24.86
19.82
14.97
10.68
7.24
4.81
3.48
3.27
4.26
6.50
9.98
14.51
19.57
24.48
28.44
30.83
31.39
30.27
28.01
25.36
23.09
21.83
22.01
23.72
26.61
29.94
32.63
33.54
31.91
27.62
21.25
13.90
6.76
0.74
-3.74
-6.68
-8.42
-9.37
-9.93
-10.46
-11.26
-12.60
-14.68
-17.63
-21.47
-26.10
-31.35
-36.85
-42.16
-46.79
-50.31
-52.52
-53.55
-53.82
-53.90
-54.30
-55.19
-56.40
-57.38
-57.36
-55.54
-51.28
-44.26
-34.59
-22.89
-10.20
2.20
13.02
21.30
26.60
29.00
28.98
27.24
24.48
21.29
18.17
15.43
13.27
11.75
10.82
10.39
10.49
11.26
12.96
15.82
19.87
24.85
30.16
35.02
38.61
40.32
39.91
37.53
33.76
29.43
25.53
23.05
22.84
25.41
30.76
38.20
46.37
53.49
57.86
58.42
55.07
48.63
40.35
31.38
22.34
13.29
4.06
-5.38
-14.69
-23.23
-30.39
-35.84
-39.78
-42.73
-45.39
-48.31
-51.76
-55.63
-59.52
-62.84
-65.02
-65.74
-65.01
-63.24
-61.09
-59.22
-58.09
-57.71
-57.56
-56.64
-53.69
-47.51
-37.32
-23.13
-5.79
13.06
31.37
47.10
58.76
65.70
68.13
66.93
63.24
58.09
52.17
45.82
39.18
32.40
25.75
19.59
14.23
9.84
6.37
3.75
1.94
1.06
1.33
2.85
5.50
8.82
12.16
14.86
16.42
16.59
15.42
13.15
10.24
7.36
5.34
5.01
6.97
11.31
17.49
24.42
30.77
35.31
37.32
36.66
33.71
29.18
23.79
18.16
12.65
7.37
2.30
-2.67
-7.61
-12.52
-17.34
-21.99
-26.49
-30.89
-35.30
-39.72
-44.01
-47.82
-50.77
-52.58
-53.18
-52.78
-51.72
-50.31
-48.64
-46.60
-43.94
-40.46
-36.23
-31.55
-26.92
-22.87
-19.67
-17.18
-14.80
-11.53
-6.28
1.83
13.09
26.92
41.86
55.75
66.26
71.44
70.28
63.09
51.49
38.07
25.74
16.93
12.80
12.95
15.46
17.71
17.36
13.29
5.93
-3.17
-12.18
-19.85
-25.89
-30.73
-35.10
-39.51
-44.10
-48.64
-52.65
-55.45
-56.08
-53.25
-45.88
-33.77
-18.12
-1.44
13.26
23.59
28.56
28.79
26.13
22.66
19.76
17.80
16.38
14.94
13.24
11.33
9.57
8.54
8.77
10.60
14.16
19.40
26.28
34.68
44.15
52.69
57.86
58.08
53.80
46.97
39.74
33.59
29.70
27.52
26.36
25.82
25.77
26.24
27.18
28.30
29.40
30.25
30.60
30.47
30.23
30.37
31.27
32.88
34.72
36.14
36.55
35.43
32.48
27.48
20.12
10.02
-3.05
-18.79
-36.06
-52.99
-67.54
-78.00
-83.53
-84.26
-80.99
-74.76
-66.44
-56.67
-45.92
-34.69
-23.44
-12.47
-1.83
8.59
18.79
28.36
36.48
42.15
44.58
43.66
40.00
34.76
29.17
24.13
19.95
16.38
12.76
8.45
3.00
-3.62
-11.05
-18.68
-25.86
-32.09
-37.07
-40.76
-43.33
-45.07
-46.34
-47.50
-48.76
-50.16
-51.50
-52.40
-52.42
-51.24
-48.74
-45.08
-40.62
-35.86
-31.27
-27.17
-23.70
-20.73
-17.98
-15.13
-11.96
-8.48
-5.00
-1.99
-0.01
0.54
-0.44
-2.70
-5.69
-8.79
-11.45
-13.34
-14.33
-14.40
-13.47
-11.44
-8.18
-3.70
1.72
7.53
13.10
17.88
21.53
23.96
25.19
25.13
23.54
20.01
14.25
6.20
-3.74
-14.85
-26.34
-37.60
-48.31
-58.34
-67.51
-75.57
-82.19
-87.20
-90.61
-92.54
-92.88
-91.11
-86.37
-77.91
-65.69
-50.69
-34.73
-19.87
-7.57
1.77
8.86
14.99
21.35
28.73
37.41
47.49
59.08
72.35
87.24
103.16
118.85
132.65
143.01
149.13
151.09
149.80
146.41
141.84
136.59
130.83
124.71
118.57
113.02
108.73
106.21
105.60
106.63
108.72
111.05
112.67
112.59
109.86
103.79
94.23
81.71
67.38
52.56
38.18
24.31
10.11
-5.79
-24.48
-46.05
-69.27
-91.88
-111.27
-125.30
-132.88
-134.26
-130.90
-125.10
-119.42
-116.03
-116.02
-119.17
-124.08
-128.81
-131.75
-132.08
-129.76
-125.10
-118.33
-109.40
-98.35
-85.65
-72.49
-60.39
-50.58
-43.41
-38.15
-33.47
-28.20
-22.03
-15.62
-10.30
-7.42
-7.75
-11.20
-16.88
-23.53
-29.88
-35.05
-38.68
-40.73
-41.31
-40.46
-38.23
-34.79
-30.63
-26.51
-23.26
-21.43
-21.02
-21.47
-22.03
-22.06
-21.31
-19.88
-18.03
-16.03
-14.07
-12.37
-11.13
-10.44
-10.13
-9.63
-8.16
-5.12
-0.42
5.43
11.58
17.33
22.40
26.98
31.40
35.78
39.80
42.93
44.66
44.92
44.03
42.54
40.90
39.23
37.35
34.98
32.00
28.56
25.02
21.75
18.98
16.70
14.73
12.80
10.71
8.46
6.27
4.51
3.52
3.47
4.33
5.87
7.68
9.38
10.68
11.46
11.78
11.77
11.54
11.21
10.87
10.44
9.69
8.37
6.33
3.67
0.74
-1.93
-3.50
-3.14
-0.46
4.30
10.34
16.72
22.58
27.36
30.82
33.72
37.17
41.96
47.74
53.06
55.94
54.54
47.75
35.55
20.08
4.58
-8.09
-16.70
-21.74
-24.50
-26.19
-27.44
-28.15
-26.27
-18.97
-4.02
19.10
49.31
84.84
123.68
163.38
193.39
202.56
185.45
146.96
98.66
51.48
12.05
-17.36
-37.44
-50.44
-57.60
-59.24
-55.55
-47.69
-37.75
-28.01
-20.30
-15.73
-14.64
-15.64
-16.71
-16.43
-14.69
-12.56
-11.30
-11.70
-13.83
-17.17
-20.24
-21.36
-19.50
-14.80
-8.42
-1.89
3.53
7.07
8.48
8.13
7.35
6.96
7.24
8.10
9.14
10.05
10.62
10.76
10.57
10.29
10.11
10.12
10.19
9.72
8.02
4.75
-0.04
-5.74
-11.44
-16.14
-19.19
-20.48
-21.01
-21.79
-23.34
-25.57
-28.06
-30.42
-32.30
-33.79
-35.01
-36.89
-39.83
-43.41
-46.99
-49.95
-52.27
-53.91
-55.19
-56.21
-58.01
-61.05
-64.85
-68.63
-71.48
-73.26
-74.00
-74.48
-68.09
-52.32
-29.69
-5.90
14.18
29.19
37.27
40.99
41.81
40.16
34.73
24.22
11.49
-1.01
-11.28
-19.38
-25.77
-30.90
-34.18
-35.05
-32.87
-27.42
-21.44
-14.92
-8.61
-3.05
1.37
4.58
6.69
7.84
8.18
8.28
9.66
12.27
15.40
17.70
17.57
14.46
8.34
-0.38
-9.99
-18.04
-23.38
-26.31
-28.21
-31.28
-35.79
-41.18
-46.10
-46.82
-38.27
-16.79
18.70
66.33
121.00
178.09
232.50
270.39
279.56
257.58
214.22
164.31
125.50
96.35
72.92
52.13
32.60
14.55
0.65
-7.41
-10.29
-10.75
-13.23
-19.33
-29.19
-42.20
-56.00
-68.76
-80.54
-91.13
-100.00
-106.88
-109.97
-108.29
-105.69
-101.90
-96.46
-89.91
-83.59
-77.30
-72.01
-67.21
-61.83
-54.66
-43.89
-28.77
-9.96
10.60
30.10
45.43
55.17
59.41
59.30
56.94
53.78
50.42
46.88
42.92
38.10
32.53
26.47
20.08
13.59
6.88
-0.09
-7.08
-13.49
-18.66
-21.92
-22.89
-21.66
-18.77
-15.26
-12.18
-10.15
-9.22
-8.97
-8.76
-8.09
-6.83
-5.16
-3.45
-2.02
-1.00
-0.33
0.00
-0.09
-0.82
-2.34
-4.64
-7.39
-10.09
-12.20
-13.42
-13.72
-13.41
-12.92
-12.68
-12.99
-13.88
-15.13
-16.29
-16.82
-16.29
-14.49
-11.62
-8.20
-4.94
-2.46
-1.14
-0.97
-1.68
-2.83
-4.05
-5.10
-5.91
-6.52
-6.98
-7.35
-7.64
-7.94
-8.34
-8.97
-9.94
-11.27
-12.82
-14.31
-15.35
-15.55
-14.61
-12.43
-9.18
-5.24
-1.10
2.75
6.01
8.59
10.52
11.92
12.84
13.31
13.36
13.10
12.69
12.24
11.70
10.86
9.43
7.30
4.64
2.00
0.05
-0.70
-0.12
1.47
3.49
5.34
6.65
7.28
7.23
6.50
5.02
2.70
-0.41
-4.02
-7.66
-10.77
-12.89
-13.74
-13.26
-11.60
-9.03
-5.90
-2.60
0.50
3.16
5.31
7.00
8.39
9.56
10.57
11.36
11.93
12.31
12.62
12.99
13.52
14.19
14.83
15.24
15.18
14.52
13.25
11.49
9.48
7.46
5.66
4.16
2.91
1.78
0.64
-0.55
-1.72
-2.70
-3.29
-3.35
-2.78
-1.59
0.14
2.29
4.72
7.26
9.73
11.90
13.56
14.58
14.89
14.58
13.87
13.06
12.42
12.15
12.20
12.31
12.08
11.11
9.15
6.30
2.96
-0.24
-2.70
-4.02
-4.11
-3.24
-1.87
-0.51
0.44
0.72
0.23
-1.02
-2.95
-5.43
-8.29
-11.29
-14.17
-16.64
-18.43
-19.35
-19.32
-18.35
-16.58
-14.19
-11.33
-8.10
-4.52
-0.54
3.90
8.77
13.86
18.85
23.31
26.85
29.25
30.47
30.63
29.92
28.57
26.73
24.54
22.09
19.49
16.80
14.07
11.31
8.57
5.92
3.45
1.25
-0.64
-2.23
-3.55
-4.60
-5.33
-5.74
-5.89
-5.92
-5.95
-5.99
-5.79
-5.00
-3.30
-0.54
3.10
7.26
11.46
15.29
18.40
20.52
21.46
21.08
19.45
16.88
13.87
10.99
8.69
7.15
6.29
5.83
5.46
4.91
4.01
2.66
0.84
-1.42
-4.03
-6.84
-9.62
-12.11
-14.09
-15.46
-16.26
-16.65
-16.84
-17.01
-17.26
-17.61
-17.94
-18.11
-17.86
-16.98
-15.28
-12.76
-9.62
-6.22
-3.04
-0.46
1.34
2.42
2.99
3.33
3.64
3.99
4.37
4.74
5.09
5.42
5.77
6.13
6.49
6.85
7.22
7.66
8.22
8.94
9.83
10.81
11.77
12.59
13.20
13.64
13.99
14.33
14.69
14.94
14.92
14.49
13.67
12.58
11.43
10.30
9.14
7.71
5.76
3.13
-0.16
-3.86
-7.61
-11.01
-13.73
-15.59
-16.62
-17.04
-17.19
-17.41
-17.89
-18.60
-19.33
-19.83
-19.92
-19.58
-18.88
-17.89
-16.65
-15.15
-13.37
-11.44
-9.57
-8.06
-7.20
-7.16
-7.97
-9.48
-11.38
-13.24
-14.63
-15.16
-14.65
-13.09
-10.65
-7.59
-4.16
-0.52
3.29
7.23
11.29
15.39
19.34
22.91
25.87
28.11
29.60
30.41
30.65
30.36
29.56
28.27
26.62
24.82
23.20
21.97
21.19
20.67
20.03
18.84
16.78
13.80
10.12
6.13
2.26
-1.19
-4.11
-6.51
-8.48
-10.08
-11.29
-12.12
-12.66
-13.15
-13.92
-15.20
-16.99
-18.91
-20.37
-20.75
-19.71
-17.33
-14.10
-10.70
-7.71
-5.44
-3.90
-2.89
-2.22
-1.86
-1.90
-2.50
-3.67
-5.26
-7.00
-8.59
-9.83
-10.69
-11.22
-11.50
-11.48
-11.06
-10.06
-8.38
-6.01
-3.02
0.43
4.13
7.80
11.07
13.55
14.89
14.94
13.78
11.76
9.34
6.91
4.71
2.84
1.31
0.17
-0.50
-0.63
-0.21
0.66
1.84
3.17
4.60
6.12
7.81
9.68
11.64
13.49
14.93
15.68
15.57
14.62
13.03
11.15
9.29
7.70
6.50
5.64
5.00
4.42
3.72
2.68
1.12
-1.02
-3.63
-6.32
-8.61
-10.06
-10.47
-10.02
-9.19
-8.52
-8.43
-9.02
-10.06
-11.20
-12.11
-12.65
-12.94
-13.14
-13.41
-13.76
-14.06
-14.16
-13.99
-13.64
-13.26
-12.98
-12.79
-12.49
-11.80
-10.42
-8.21
-5.23
-1.73
1.94
5.42
8.41
10.72
12.23
12.95
12.90
12.23
11.11
9.75
8.31
6.90
5.55
4.20
2.81
1.40
0.09
-0.93
-1.47
-1.39
-0.61
0.85
2.92
5.49
8.44
11.57
14.66
17.46
19.73
21.35
22.32
22.81
23.09
23.36
23.69
23.92
23.72
22.72
20.66
17.49
13.36
8.55
3.44
-1.54
-5.98
-9.46
-11.69
-12.54
-12.17
-10.96
-9.42
-8.00
-6.98
-6.44
-6.30
-6.47
-6.85
-7.42
-8.10
-8.79
-9.28
-9.40
-9.06
-8.30
-7.28
-6.18
-5.16
-4.29
-3.61
-3.14
-2.93
-3.01
-3.42
-4.09
-4.95
-5.88
-6.79
-7.65
-8.42
-9.11
-9.69
-10.13
-10.43
-10.63
-10.76
-10.86
-10.91
-10.88
-10.67
-10.24
-9.54
-8.60
-7.47
-6.15
-4.62
-2.83
-0.77
1.46
3.61
5.38
6.58
7.16
7.35
7.43
7.67
8.12
8.66
9.03
9.02
8.53
7.60
6.29
4.65
2.70
0.48
-1.88
-4.14
-6.03
-7.32
-7.96
-8.07
-7.94
-7.91
-8.24
-9.08
-10.41
-12.10
-13.97
-15.84
-17.58
-19.11
-20.35
-21.27
-21.92
-22.42
-22.97
-23.71
-24.58
-25.32
-25.52
-24.78
-23.00
-20.39
-17.47
-14.88
-13.16
-12.57
-12.95
-13.72
-13.96
-12.57
-8.70
-2.08
6.73
16.37
25.11
31.42
34.45
34.29
31.79
28.07
24.12
20.47
17.27
14.40
11.71
9.10
6.58
4.29
2.47
1.50
1.88
4.04
8.19
14.06
20.96
27.82
33.52
37.15
38.26
36.86
33.33
28.23
22.20
15.85
9.76
4.41
0.14
-2.85
-4.63
-5.47
-5.83
-6.17
-6.84
-7.96
-9.42
-10.94
-12.26
-13.26
-13.98
-14.55
-15.08
-15.59
-15.95
-16.02
-15.71
-15.10
-14.36
-13.63
-12.93
-12.16
-11.15
-9.76
-7.99
-6.00
-3.96
-2.02
-0.25
1.36
2.81
4.08
5.18
6.16
7.15
8.28
9.56
10.87
11.92
12.47
12.41
11.83
10.97
10.07
9.31
8.73
8.35
8.22
8.48
9.32
10.82
12.90
15.21
17.29
18.66
19.05
18.43
17.02
15.19
13.29
11.59
10.23
9.20
8.41
7.63
6.57
4.89
2.31
-1.25
-5.63
-10.37
-14.82
-18.34
-20.45
-21.01
-20.18
-18.39
-16.14
-13.85
-11.77
-9.98
-8.49
-7.29
-6.43
-5.92
-5.71
-5.66
-5.54
-5.20
-4.63
-3.99
-3.54
-3.48
-3.86
-4.59
-5.46
-6.26
-6.90
-7.32
-7.54
-7.56
-7.34
-6.84
-6.03
-4.97
-3.72
-2.42
-1.14
0.00
0.94
1.58
1.86
1.76
1.38
0.93
0.65
0.69
1.08
1.73
2.51
3.35
4.34
5.59
7.17
9.02
10.89
12.41
13.29
13.37
12.72
11.55
10.16
8.83
7.74
6.98
6.50
6.20
5.90
5.39
4.47
3.00
0.90
-1.76
-4.76
-7.69
-10.09
-11.59
-12.07
-11.68
-10.84
-9.97
-9.39
-9.20
-9.27
-9.40
-9.44
-9.35
-9.19
-9.04
-8.92
-8.76
-8.46
-7.98
-7.37
-6.81
-6.53
-6.67
-7.13
-7.61
-7.68
-6.96
-5.33
-3.02
-0.50
1.72
3.27
4.11
4.41
4.45
4.45
4.52
4.61
4.67
4.65
4.56
4.38
4.08
3.58
2.81
1.81
0.71
-0.25
-0.77
-0.60
0.45
2.38
5.03
8.04
10.93
13.25
14.68
15.19
15.04
14.66
14.47
14.67
15.20
15.76
15.99
15.59
14.41
12.39
9.59
6.14
2.27
-1.66
-5.26
-8.15
-10.15
-11.34
-12.02
-12.55
-13.23
-14.14
-15.21
-16.28
-17.20
-17.97
-18.63
-19.24
-19.79
-20.20
-20.34
-20.10
-19.45
-18.44
-17.23
-15.98
-14.83
-13.79
-12.81
-11.72
-10.36
-8.59
-6.36
-3.78
-1.03
1.66
4.12
6.27
8.12
9.71
10.96
11.72
11.77
11.01
9.47
7.42
5.26
3.40
2.08
1.38
1.22
1.43
1.86
2.39
2.99
3.68
4.57
5.78
7.42
9.45
11.69
13.79
15.41
16.30
16.47
16.17
15.80
15.70
15.99
16.49
16.81
16.46
15.11
12.67
9.35
5.55
1.74
-1.69
-4.49
-6.59
-8.04
-8.97
-9.55
-9.95
-10.33
-10.78
-11.38
-12.14
-13.01
-13.98
-15.01
-16.06
-17.05
-17.86
-18.39
-18.62
-18.60
-18.51
-18.49
-18.58
-18.67
-18.53
-17.89
-16.62
-14.73
-12.28
-9.33
-5.87
-1.87
2.57
7.15
11.34
14.56
16.41
16.78
15.90
14.22
12.19
10.12
8.11
6.11
4.02
1.80
-0.47
-2.57
-4.20
-5.01
-4.74
-3.21
-0.49
3.14
7.23
11.27
14.73
17.25
18.57
18.63
17.51
15.45
12.85
10.21
8.01
6.64
6.23
6.62
7.35
7.88
7.73
6.63
4.60
1.87
-1.21
-4.26
-6.91
-8.92
-10.11
-10.45
-9.96
-8.80
-7.16
-5.30
-3.52
-2.08
-1.17
-0.86
-1.08
-1.62
-2.22
-2.64
-2.78
-2.67
-2.50
-2.50
-2.81
-3.40
-4.03
-4.26
-3.64
-1.88
0.98
4.57
8.32
11.65
14.24
16.01
17.10
17.69
17.89
17.64
16.79
15.21
12.87
9.91
6.57
3.17
0.07
-2.45
-4.22
-5.19
-5.48
-5.27
-4.76
-4.09
-3.33
-2.48
-1.53
-0.50
0.48
1.23
1.55
1.33
0.56
-0.57
-1.83
-2.93
-3.63
-3.82
-3.53
-2.91
-2.21
-1.72
-1.70
-2.27
-3.38
-4.80
-6.14
-6.98
-7.05
-6.28
-4.90
-3.31
-1.99
-1.35
-1.58
-2.63
-4.29
-6.27
-8.32
-10.27
-11.95
-13.24
-13.94
-13.93
-13.24
-12.07
-10.85
-10.00
-9.78
-10.15
-10.83
-11.36
-11.33
-10.53
-8.91
-6.59
-3.78
-0.73
2.28
4.91
6.87
7.97
8.23
7.83
7.08
6.28
5.64
5.22
4.94
4.69
4.40
4.04
3.66
3.32
3.16
3.28
3.77
4.65
5.83
7.15
8.42
9.44
10.07
10.24
9.91
9.12
7.92
6.42
4.77
3.15
1.78
0.79
0.23
-0.03
-0.25
-0.77
-1.83
-3.48
-5.45
-7.28
-8.47
-8.72
-8.00
-6.58
-4.90
-3.34
-2.14
-1.41
-1.20
-1.52
-2.39
-3.82
-5.68
-7.73
-9.66
-11.18
-12.12
-12.46
-12.37
-12.06
-11.77
-11.71
-11.92
-12.35
-12.82
-13.09
-12.88
-11.95
-10.19
-7.64
-4.51
-1.21
1.84
4.24
5.76
6.42
6.41
6.06
5.73
5.68
6.07
6.86
7.87
8.82
9.39
9.39
8.72
7.54
6.07
4.61
3.32
2.21
1.14
-0.12
-1.68
-3.49
-5.28
-6.63
-7.18
-6.76
-5.50
-3.83
-2.30
-1.36
-1.29
-2.03
-3.33
-4.77
-5.88
-6.25
-5.49
-3.46
-0.21
3.87
8.21
12.14
15.18
17.07
17.86
17.85
17.40
16.80
16.19
15.54
14.65
13.33
11.48
9.12
6.43
3.71
1.23
-0.74
-2.04
-2.61
-2.53
-2.06
-1.57
-1.51
-2.26
-3.91
-6.24
-8.72
-10.72
-11.73
-11.60
-10.54
-9.05
-7.69
-6.90
-6.86
-7.48
-8.54
-9.79
-11.05
-12.19
-13.12
-13.70
-13.77
-13.19
-11.91
-10.05
-7.88
-5.75
-4.00
-2.84
-2.29
-2.19
-2.25
-2.11
-1.49
-0.27
1.54
3.76
6.15
8.51
10.69
12.65
14.41
15.96
17.22
18.05
18.30
17.94
17.08
15.96
14.84
13.94
13.34
13.00
12.86
12.88
13.09
13.58
14.47
15.76
17.33
18.85
19.96
20.32
19.76
18.31
16.22
13.80
11.36
9.08
7.03
5.24
3.77
2.73
2.18
2.12
2.39
2.70
2.78
2.45
1.63
0.36
-1.30
-3.27
-5.48
-7.86
-10.30
-12.66
-14.87
-16.93
-18.84
-20.64
-22.26
-23.56
-24.37
-24.54
-24.04
-22.87
-21.07
-18.65
-15.59
-11.90
-7.71
-3.31
0.90
4.52
7.29
9.17
10.39
11.26
12.05
12.84
13.51
13.80
13.47
12.44
10.82
8.88
6.95
5.36
4.29
3.83
3.90
4.27
4.65
4.73
4.23
3.01
1.03
-1.57
-4.57
-7.65
-10.46
-12.70
-14.15
-14.73
-14.56
-13.86
-12.95
-12.11
-11.53
-11.29
-11.33
-11.49
-11.55
-11.28
-10.44
-8.91
-6.71
-3.98
-1.02
1.85
4.34
6.30
7.72
8.69
9.35
9.77
9.92
9.71
8.97
7.65
5.77
3.53
1.22
-0.84
-2.38
-3.23
-3.33
-2.71
-1.43
0.38
2.53
4.74
6.71
8.14
8.85
8.84
8.25
7.30
6.26
5.36
4.81
4.75
5.23
6.14
7.16
7.81
7.57
6.07
3.28
-0.46
-4.52
-8.18
-10.88
-12.39
-12.81
-12.47
-11.79
-11.13
-10.71
-10.63
-10.85
-11.32
-12.00
-12.83
-13.78
-14.77
-15.71
-16.47
-16.90
-16.94
-16.60
-16.03
-15.46
-15.15
-15.24
-15.61
-15.87
-15.34
-13.37
-9.55
-3.99
2.62
9.25
14.80
18.59
20.46
20.84
20.43
19.92
19.71
19.85
20.15
20.31
20.08
19.29
17.84
15.69
12.86
9.52
5.96
2.66
0.09
-1.37
-1.60
-0.73
0.86
2.66
4.13
4.83
4.50
3.13
1.00
-1.36
-3.34
-4.38
-4.22
-2.92
-0.97
0.94
2.07
1.90
0.24
-2.67
-6.30
-9.92
-12.84
-14.57
-14.95
-14.16
-12.69
-11.10
-9.86
-9.14
-8.80
-8.50
-7.85
-6.70
-5.19
-3.65
-2.49
-1.93
-1.93
-2.24
-2.52
-2.54
-2.23
-1.69
-1.04
-0.41
0.17
0.75
1.41
2.24
3.34
4.74
6.41
8.25
10.07
11.76
13.25
14.58
15.92
17.46
19.36
21.71
24.53
27.72
31.04
34.05
36.12
36.55
34.86
30.99
25.43
19.11
13.12
8.30
5.01
3.07
1.92
0.94
-0.35
-2.05
-3.97
-5.80
-7.24
-8.20
-8.83
-9.39
-10.21
-11.51
-13.36
-15.73
-18.47
-21.38
-24.23
-26.75
-28.69
-29.91
-30.46
-30.54
-30.50
-30.55
-30.74
-30.84
-30.44
-29.16
-26.82
-23.45
-19.35
-14.87
-10.40
-6.25
-2.67
0.16
2.15
3.29
3.75
3.77
3.65
3.65
3.87
4.29
4.79
5.22
5.55
5.89
6.48
7.53
9.11
11.01
12.80
13.96
14.10
13.13
11.27
8.95
6.61
4.50
2.68
1.02
-0.67
-2.51
-4.41
-6.14
-7.33
-7.63
-6.79
-4.82
-1.95
1.40
4.74
7.64
9.81
11.10
11.48
11.07
10.10
8.91
7.84
7.13
6.84
6.84
6.87
6.72
6.32
5.76
5.24
4.87
4.67
4.50
4.19
3.56
2.59
1.33
-0.04
-1.35
-2.44
-3.28
-3.88
-4.34
-4.76
-5.21
-5.66
-6.05
-6.30
-6.36
-6.19
-5.82
-5.32
-4.80
-4.39
-4.24
-4.46
-5.06
-5.94
-6.89
-7.61
-7.82
-7.31
-6.04
-4.16
-2.00
-0.00
1.39
1.86
1.36
0.09
-1.53
-2.98
-3.83
-3.89
-3.24
-2.17
-1.09
-0.32
0.05
0.12
0.12
0.25
0.53
0.83
0.93
0.73
0.29
-0.13
-0.24
0.16
1.02
2.13
3.19
4.00
4.51
4.80
4.94
4.97
4.82
4.44
3.85
3.18
2.62
2.34
2.34
2.46
2.45
2.08
1.24
0.03
-1.30
-2.47
-3.21
-3.41
-3.08
-2.34
-1.36
-0.30
0.69
1.55
2.23
2.77
3.23
3.67
4.14
4.61
5.06
5.46
5.79
6.03
6.14
6.01
5.53
4.62
3.30
1.70
0.08
-1.31
-2.25
-2.65
-2.49
-1.84
-0.83
0.37
1.48
2.20
2.27
1.55
0.11
-1.76
-3.60
-4.98
-5.62
-5.49
-4.78
-3.79
-2.81
-2.04
-1.51
-1.16
-0.98
-0.98
-1.26
-1.92
-2.92
-4.14
-5.35
-6.33
-6.98
-7.34
-7.56
-7.81
-8.17
-8.62
-9.04
-9.33
-9.40
-9.27
-8.95
-8.45
-7.66
-6.48
-4.81
-2.70
-0.38
1.79
3.42
4.31
4.48
4.21
3.89
3.83
4.16
4.80
5.55
6.22
6.73
7.12
7.49
7.88
8.31
8.71
9.03
9.27
9.43
9.54
9.55
9.41
9.05
8.41
7.49
6.34
4.96
3.38
1.66
-0.09
-1.65
-2.78
-3.30
-3.17
-2.56
-1.75
-1.09
-0.87
-1.31
-2.46
-4.21
-6.24
-8.11
-9.33
-9.53
-8.67
-7.07
-5.34
-4.09
-3.75
-4.34
-5.48
-6.65
-7.42
-7.58
-7.24
-6.65
-6.03
-5.51
-5.02
-4.47
-3.80
-3.00
-2.15
-1.34
-0.60
0.05
0.61
1.01
1.15
0.92
0.28
-0.69
-1.78
-2.70
-3.15
-2.92
-1.97
-0.40
1.52
3.48
5.21
6.55
7.53
8.32
9.13
10.07
11.10
12.01
12.50
12.38
11.65
10.52
9.33
8.45
8.10
8.31
8.99
9.92
10.94
11.88
12.62
13.00
12.83
11.91
10.19
7.79
5.03
2.36
0.21
-1.17
-1.77
-1.85
-1.80
-2.02
-2.76
-4.02
-5.58
-7.13
-8.41
-9.33
-9.99
-10.63
-11.46
-12.50
-13.56
-14.30
-14.43
-13.87
-12.80
-11.52
-10.32
-9.29
-8.29
-7.10
-5.56
-3.77
-2.06
-0.84
-0.44
-0.93
-2.14
-3.74
-5.32
-6.57
-7.24
-7.20
-6.46
-5.18
-3.69
-2.34
-1.45
-1.16
-1.36
-1.82
-2.26
-2.46
-2.27
-1.58
-0.31
1.59
3.98
6.56
8.90
10.58
11.36
11.31
10.74
10.02
9.47
9.25
9.37
9.74
10.24
10.72
11.02
10.95
10.39
9.31
7.85
6.27
4.83
3.75
3.10
2.81
2.72
2.64
2.41
1.90
1.01
-0.25
-1.80
-3.46
-4.98
-6.13
-6.80
-6.98
-6.81
-6.50
-6.29
-6.34
-6.64
-7.06
-7.36
-7.29
-6.70
-5.57
-4.01
-2.23
-0.43
1.14
2.26
2.71
2.36
1.17
-0.70
-2.96
-5.20
-7.06
-8.26
-8.68
-8.34
-7.39
-6.12
-4.82
-3.73
-2.91
-2.24
-1.41
-0.17
1.53
3.52
5.44
6.96
7.95
8.51
8.90
9.36
10.02
10.85
11.70
12.45
13.02
13.35
13.32
12.72
11.30
8.97
5.89
2.51
-0.56
-2.82
-4.03
-4.39
-4.34
-4.44
-5.07
-6.31
-8.02
-9.90
-11.69
-13.19
-14.35
-15.14
-15.54
-15.56
-15.23
-14.63
-13.88
-13.08
-12.21
-11.14
-9.64
-7.55
-4.94
-2.15
0.29
1.77
1.91
0.69
-1.43
-3.62
-4.95
-4.71
-2.64
0.96
5.40
9.84
13.57
16.21
17.67
18.14
17.82
16.92
15.52
13.69
11.47
9.02
6.58
4.42
2.85
2.03
2.02
2.73
3.95
5.42
6.84
7.91
8.36
8.04
6.96
5.37
3.62
2.06
0.93
0.22
-0.22
-0.61
-1.16
-1.97
-3.09
-4.53
-6.24
-8.13
-10.00
-11.57
-12.57
-12.82
-12.35
-11.33
-10.04
-8.71
-7.43
-6.16
-4.75
-3.04
-0.99
1.30
3.60
5.53
6.74
6.93
6.02
4.17
1.78
-0.61
-2.52
-3.66
-3.98
-3.73
-3.22
-2.79
-2.65
-2.83
-3.20
-3.52
-3.55
-3.17
-2.43
-1.52
-0.71
-0.20
-0.08
-0.28
-0.69
-1.18
-1.66
-2.04
-2.22
-2.04
-1.37
-0.16
1.51
3.44
5.39
7.10
8.38
9.07
9.12
8.62
7.79
6.95
6.39
6.20
6.21
6.07
5.39
3.94
1.75
-0.92
-3.72
-6.32
-8.54
-10.33
-11.74
-12.83
-13.70
-14.42
-15.03
-15.56
-15.92
-16.00
-15.62
-14.69
-13.20
-11.31
-9.25
-7.27
-5.54
-4.15
-3.06
-2.25
-1.74
-1.58
-1.85
-2.50
-3.30
-3.85
-3.73
-2.66
-0.75
1.56
3.60
4.82
5.01
4.35
3.34
2.50
2.15
2.37
3.02
3.94
5.05
6.26
7.49
8.55
9.21
9.35
8.99
8.32
7.59
6.98
6.53
6.19
5.87
5.58
5.44
5.66
6.46
7.85
9.65
11.48
12.89
13.52
13.24
12.17
10.57
8.71
6.79
4.84
2.84
0.81
-1.16
-2.91
-4.25
-5.12
-5.57
-5.79
-5.96
-6.25
-6.67
-7.14
-7.54
-7.71
-7.63
-7.33
-6.88
-6.37
-5.81
-5.13
-4.26
-3.17
-1.91
-0.59
0.65
1.70
2.47
2.87
2.83
2.30
1.33
0.08
-1.20
-2.29
-3.06
-3.50
-3.74
-3.91
-4.08
-4.22
-4.17
-3.76
-2.87
-1.49
0.25
2.07
3.67
4.82
5.47
5.77
6.02
6.55
7.51
8.74
9.91
10.60
10.53
9.70
8.33
6.70
5.07
3.53
2.13
0.91
0.00
-0.40
-0.23
0.43
1.23
1.74
1.59
0.63
-1.04
-3.09
-5.15
-6.88
-8.01
-8.49
-8.39
-7.93
-7.38
-7.02
-7.00
-7.30
-7.72
-8.00
-7.91
-7.37
-6.46
-5.37
-4.31
-3.42
-2.79
-2.43
-2.39
-2.71
-3.40
-4.36
-5.38
-6.09
-6.14
-5.32
-3.63
-1.34
1.10
3.23
4.70
5.29
4.97
3.84
2.10
0.07
-1.91
-3.53
-4.57
-5.00
-4.93
-4.54
-4.04
-3.54
-3.07
-2.58
-2.01
-1.21
-0.06
1.51
3.41
5.32
6.77
7.29
6.69
5.21
3.48
2.29
2.20
3.30
5.17
7.06
8.26
8.36
7.41
5.79
4.03
2.60
1.73
1.47
1.75
2.43
3.39
4.48
5.48
6.13
6.16
5.46
4.12
2.45
0.88
-0.21
-0.66
-0.55
-0.20
-0.00
-0.31
-1.30
-2.94
-4.98
-6.98
-8.49
-9.11
-8.70
-7.40
-5.58
-3.73
-2.23
-1.27
-0.83
-0.69
-0.61
-0.34
0.25
1.18
2.41
3.75
4.97
5.82
6.04
5.49
4.16
2.23
-0.02
-2.22
-4.06
-5.35
-6.06
-6.27
-6.17
-5.87
-5.39
-4.61
-3.35
-1.49
0.90
3.54
5.99
7.84
8.90
9.29
9.32
9.38
9.73
10.37
11.12
11.74
12.00
11.79
11.07
9.85
8.18
6.19
4.10
2.19
0.76
-0.02
-0.14
0.23
0.79
1.19
1.16
0.55
-0.60
-2.09
-3.57
-4.71
-5.22
-5.00
-4.14
-2.90
-1.70
-0.96
-0.95
-1.73
-3.12
-4.68
-5.97
-6.65
-6.66
-6.15
-5.43
-4.80
-4.48
-4.56
-5.00
-5.74
-6.71
-7.79
-8.85
-9.76
-10.37
-10.62
-10.51
-10.05
-9.23
-7.98
-6.24
-4.07
-1.65
0.69
2.63
3.93
4.52
4.44
3.84
2.84
1.60
0.38
-0.44
-0.40
0.85
3.43
6.99
10.84
14.13
16.13
16.55
15.60
13.93
12.31
11.38
11.40
12.25
13.51
14.71
15.49
15.69
15.35
14.61
13.74
12.98
12.56
12.61
13.11
13.90
14.74
15.38
15.61
15.30
14.39
12.83
10.62
7.83
4.61
1.19
-2.15
-5.06
-7.19
-8.16
-7.75
-5.95
-3.06
0.26
3.18
4.93
5.09
3.69
1.17
-1.80
-4.68
-7.19
-9.34
-11.37
-13.44
-15.54
-17.46
-18.83
-19.39
-19.04
-17.95
-16.44
-14.86
-13.45
-12.25
-11.13
-9.84
-8.16
-5.94
-3.29
-0.54
1.83
3.29
3.57
2.72
1.13
-0.63
-2.08
-2.96
-3.27
-3.13
-2.64
-1.81
-0.63
0.77
2.08
2.89
2.85
1.82
-0.01
-2.28
-4.53
-6.39
-7.59
-7.99
-7.56
-6.38
-4.66
-2.69
-0.80
0.78
1.97
2.84
3.54
4.18
4.77
5.18
5.24
4.80
3.80
2.32
0.53
-1.38
-3.27
-5.05
-6.67
-8.01
-8.90
-9.18
-8.79
-7.88
-6.76
-5.81
-5.34
-5.46
-6.09
-7.05
-8.11
-9.05
-9.73
-10.06
-9.99
-9.59
-8.97
-8.26
-7.58
-6.96
-6.35
-5.68
-4.90
-3.97
-2.99
-2.11
-1.52
-1.37
-1.69
-2.30
-2.95
-3.36
-3.37
-3.00
-2.36
-1.61
-0.84
-0.11
0.56
1.16
1.66
2.08
2.48
2.97
3.58
4.26
4.87
5.28
5.43
5.41
5.35
5.38
5.54
5.76
5.95
6.05
6.11
6.25
6.63
7.32
8.29
9.36
10.21
10.56
10.19
9.09
7.38
5.33
3.24
1.39
-0.07
-1.12
-1.81
-2.30
-2.69
-3.06
-3.40
-3.68
-3.86
-3.98
-4.12
-4.38
-4.81
-5.32
-5.76
-5.97
-5.87
-5.46
-4.84
-4.08
-3.19
-2.10
-0.67
1.16
3.38
5.78
8.06
9.88
10.94
11.04
10.12
8.22
5.50
2.23
-1.22
-4.38
-6.81
-8.17
-8.33
-7.44
-5.85
-4.00
-2.30
-0.96
-0.06
0.48
0.80
1.11
1.59
2.43
3.68
5.26
6.91
8.24
8.91
8.79
8.01
6.99
6.21
6.08
6.75
8.11
9.85
11.67
13.33
14.71
15.79
16.52
16.78
16.37
15.14
13.03
10.23
7.12
4.18
1.83
0.28
-0.58
-1.11
-1.78
-2.99
-4.92
-7.44
-10.19
-12.69
-14.58
-15.70
-16.17
-16.26
-16.33
-16.60
-17.11
-17.67
-17.99
-17.78
-16.93
-15.52
-13.79
-12.06
-10.58
-9.45
-8.63
-8.00
-7.48
-7.02
-6.66
-6.41
-6.20
-5.90
-5.40
-4.71
-3.93
-3.19
-2.52
-1.81
-0.87
0.44
2.04
3.63
4.83
5.42
5.44
5.20
5.08
5.37
6.08
7.02
7.94
8.68
9.25
9.74
10.23
10.68
10.90
10.72
10.05
9.00
7.84
6.82
6.09
5.61
5.22
4.74
4.04
3.14
2.10
1.02
-0.05
-1.14
-2.33
-3.64
-5.05
-6.41
-7.54
-8.24
-8.42
-8.06
-7.30
-6.30
-5.23
-4.16
-3.09
-1.93
-0.61
0.82
2.20
3.27
3.78
3.61
2.80
1.53
0.05
-1.41
-2.66
-3.54
-3.89
-3.66
-2.91
-1.86
-0.88
-0.31
-0.27
-0.57
-0.82
-0.66
0.08
1.26
2.55
3.63
4.36
4.84
5.29
5.92
6.77
7.80
8.87
9.88
10.78
11.48
11.86
11.76
11.03
9.57
7.44
4.78
1.82
-1.18
-3.94
-6.21
-7.83
-8.72
-8.93
-8.65
-8.15
-7.65
-7.29
-7.10
-7.05
-7.14
-7.39
-7.81
-8.39
-9.00
-9.44
-9.55
-9.23
-8.52
-7.54
-6.42
-5.28
-4.18
-3.07
-1.84
-0.40
1.30
3.16
4.90
6.07
6.23
5.16
2.97
0.14
-2.59
-4.56
-5.33
-4.85
-3.38
-1.35
0.82
2.82
4.44
5.55
6.05
5.91
5.16
4.03
2.84
1.98
1.71
2.08
2.83
3.53
3.74
3.25
2.17
0.83
-0.34
-1.00
-1.04
-0.58
0.22
1.20
2.25
3.30
4.22
4.81
4.86
4.26
3.12
1.76
0.61
0.04
0.22
1.01
2.10
3.10
3.68
3.66
3.05
1.99
0.72
-0.50
-1.40
-1.85
-1.86
-1.60
-1.33
-1.25
-1.42
-1.71
-1.86
-1.67
-1.09
-0.23
0.69
1.43
1.77
1.57
0.70
-0.87
-3.10
-5.75
-8.45
-10.77
-12.39
-13.18
-13.21
-12.70
-11.88
-10.87
-9.77
-8.64
-7.62
-6.86
-6.45
-6.26
-5.98
-5.16
-3.43
-0.72
2.71
6.29
9.44
11.71
12.97
13.37
13.20
12.76
12.27
11.87
11.60
11.42
11.24
10.87
10.09
8.75
6.85
4.56
2.23
0.21
-1.19
-1.85
-1.84
-1.38
-0.71
-0.06
0.39
0.58
0.53
0.34
0.16
0.15
0.42
0.94
1.57
2.05
2.14
1.77
1.09
0.47
0.31
0.87
2.07
3.50
4.56
4.68
3.56
1.31
-1.64
-4.64
-7.03
-8.31
-8.25
-6.92
-4.66
-1.99
0.51
2.32
3.08
2.68
1.23
-0.94
-3.41
-5.78
-7.74
-9.15
-9.99
-10.35
-10.30
-9.95
-9.36
-8.65
-7.94
-7.33
-6.85
-6.31
-5.44
-3.90
-1.51
1.68
5.32
8.89
11.93
14.12
15.46
16.16
16.59
17.06
17.80
18.89
20.25
21.74
23.13
24.18
24.62
24.28
23.05
20.96
18.14
14.79
11.14
7.38
3.65
0.05
-3.33
-6.43
-9.20
-11.59
-13.58
-15.23
-16.58
-17.69
-18.58
-19.20
-19.48
-19.36
-18.81
-17.84
-16.48
-14.73
-12.63
-10.22
-7.67
-5.21
-3.17
-1.88
-1.52
-2.05
-3.20
-4.48
-5.38
-5.49
-4.63
-2.94
-0.80
1.30
2.89
3.67
3.53
2.56
0.96
-1.06
-3.30
-5.62
-7.86
-9.85
-11.42
-12.39
-12.71
-12.39
-11.60
-10.55
-9.48
-8.55
-7.79
-7.11
-6.25
-4.96
-3.02
-0.43
2.54
5.44
7.75
9.12
9.45
8.99
8.16
7.43
7.15
7.45
8.24
9.32
10.37
11.11
11.30
10.79
9.57
7.81
5.77
3.76
2.06
0.82
0.10
-0.16
-0.05
0.33
0.92
1.64
2.41
3.14
3.76
4.23
4.55
4.77
4.95
5.20
5.61
6.27
7.14
8.04
8.64
8.59
7.64
5.77
3.22
0.48
-1.88
-3.39
-3.82
-3.22
-1.88
-0.25
1.20
2.08
2.19
1.49
0.11
-1.71
-3.71
-5.63
-7.26
-8.46
-9.19
-9.53
-9.63
-9.67
-9.80
-10.06
-10.44
-10.79
-10.94
-10.61
-9.54
-7.57
-4.72
-1.28
2.24
5.29
7.44
8.57
8.92
8.90
8.96
9.34
10.05
10.89
11.60
11.90
11.58
10.52
8.71
6.26
3.45
0.64
-1.78
-3.55
-4.52
-4.74
-4.35
-3.57
-2.58
-1.58
-0.70
-0.09
0.16
0.02
-0.45
-1.13
-1.85
-2.41
-2.63
-2.40
-1.67
-0.52
0.89
2.32
3.49
4.16
4.13
3.37
1.99
0.29
-1.33
-2.45
-2.83
-2.45
-1.55
-0.50
0.31
0.66
0.49
-0.10
-0.98
-2.09
-3.42
-5.01
-6.84
-8.79
-10.63
-12.07
-12.91
-13.10
-12.79
-12.25
-11.79
-11.64
-11.85
-12.23
-12.46
-12.16
-11.02
-8.94
-6.01
-2.52
1.18
4.70
7.78
10.26
12.08
13.28
13.94
14.21
14.24
14.17
14.07
13.85
13.34
12.30
10.62
8.42
6.01
3.85
2.34
1.71
1.95
2.87
4.21
5.74
7.23
8.49
9.38
9.78
9.68
9.13
8.26
7.22
6.15
5.17
4.37
3.78
3.40
3.11
2.70
1.88
0.39
-1.86
-4.72
-7.82
-10.67
-12.80
-13.93
-14.05
-13.36
-12.26
-11.11
-10.19
-9.62
-9.38
-9.38
-9.51
-9.70
-9.92
-10.15
-10.40
-10.65
-10.87
-10.98
-10.86
-10.47
-9.82
-9.04
-8.34
-7.88
-7.65
-7.45
-6.99
-5.98
-4.31
-2.14
0.25
2.55
4.58
6.34
7.92
9.42
10.82
12.00
12.84
13.24
13.21
12.78
11.98
10.79
9.19
7.21
4.99
2.79
0.96
-0.22
-0.58
-0.12
0.98
2.39
3.70
4.52
4.59
3.86
2.53
0.95
-0.54
-1.71
-2.48
-2.90
-3.08
-3.09
-3.00
-2.90
-2.89
-3.08
-3.49
-4.03
-4.50
-4.63
-4.22
-3.20
-1.68
0.11
1.84
3.24
4.15
4.48
4.21
3.41
2.11
0.39
-1.63
-3.76
-5.75
-7.34
-8.35
-8.67
-8.33
-7.50
-6.42
-5.34
-4.45
-3.80
-3.26
-2.62
-1.64
-0.23
1.54
3.39
5.04
6.26
6.96
7.23
7.26
7.22
7.21
7.23
7.18
6.95
6.47
5.77
4.90
3.98
3.08
2.22
1.39
0.61
-0.04
-0.42
-0.34
0.35
1.63
3.36
5.23
6.87
7.97
8.34
7.97
7.05
5.84
4.64
3.68
3.09
2.87
2.86
2.84
2.54
1.78
0.50
-1.16
-2.93
-4.48
-5.51
-5.84
-5.45
-4.48
-3.15
-1.76
-0.57
0.11
0.08
-0.79
-2.46
-4.72
-7.20
-9.47
-11.19
-12.14
-12.33
-11.93
-11.17
-10.32
-9.60
-9.09
-8.77
-8.43
-7.78
-6.53
-4.55
-1.96
0.90
3.56
5.64
6.92
7.48
7.52
7.33
7.12
6.97
6.86
6.69
6.36
5.78
4.88
3.69
2.26
0.73
-0.74
-1.97
-2.78
-3.05
-2.70
-1.71
-0.15
1.79
3.84
5.66
6.92
7.40
7.03
5.92
4.35
2.67
1.26
0.43
0.30
0.82
1.72
2.58
3.02
2.81
1.95
0.67
-0.70
-1.90
-2.76
-3.27
-3.51
-3.49
-3.21
-2.64
-1.85
-1.08
-0.65
-0.87
-1.85
-3.40
-5.11
-6.52
-7.31
-7.44
-7.11
-6.65
-6.31
-6.22
-6.37
-6.65
-6.95
-7.12
-6.99
-6.36
-5.08
-3.18
-0.86
1.54
3.71
5.50
6.93
8.17
9.40
10.73
12.12
13.43
14.42
14.85
14.52
13.34
11.37
8.81
5.99
3.23
0.83
-1.04
-2.29
-2.91
-2.97
-2.55
-1.72
-0.59
0.74
2.15
3.48
4.50
5.04
4.98
4.39
3.52
2.70
2.22
2.23
2.66
3.29
3.80
3.90
3.41
2.28
0.58
-1.47
-3.62
-5.55
-7.01
-7.80
-7.85
-7.21
-6.06
-4.69
-3.41
-2.55
-2.30
-2.74
-3.84
-5.45
-7.35
-9.29
-10.99
-12.18
-12.66
-12.37
-11.45
-10.22
-9.05
-8.23
-7.84
-7.63
-7.18
-6.05
-4.00
-1.05
2.44
5.99
9.09
11.36
12.69
13.16
12.98
12.46
11.87
11.37
11.04
10.80
10.46
9.81
8.66
6.98
4.87
2.56
0.31
-1.66
-3.17
-4.13
-4.44
-4.10
-3.17
-1.89
-0.59
0.35
0.68
0.35
-0.43
-1.34
-2.03
-2.30
-2.09
-1.46
-0.56
0.46
1.46
2.32
2.96
3.28
3.21
2.69
1.72
0.41
-0.99
-2.18
-2.91
-3.05
-2.73
-2.23
-1.89
-1.93
-2.40
-3.20
-4.20
-5.28
-6.46
-7.75
-9.12
-10.41
-11.38
-11.83
-11.66
-11.00
-10.09
-9.24
-8.63
-8.22
-7.74
-6.83
-5.22
-2.90
-0.16
2.52
4.67
6.00
6.53
6.54
6.38
6.36
6.64
7.20
7.89
8.50
8.82
8.66
7.92
6.61
4.91
3.10
1.53
0.48
0.11
0.47
1.50
3.06
4.96
6.92
8.62
9.71
9.90
9.13
7.57
5.54
3.48
1.76
0.62
0.11
0.16
0.54
0.95
1.06
0.58
-0.61
-2.39
-4.45
-6.36
-7.70
-8.21
-7.87
-6.82
-5.34
-3.76
-2.38
-1.48
-1.26
-1.85
-3.18
-4.99
-6.92
-8.56
-9.62
-9.97
-9.70
-9.01
-8.17
-7.42
-6.92
-6.70
-6.68
-6.66
-6.38
-5.58
-4.14
-2.16
0.11
2.30
4.09
5.26
5.81
5.87
5.64
5.36
5.21
5.27
5.57
5.99
6.38
6.58
6.49
6.06
5.38
4.60
3.92
3.50
3.50
3.99
4.96
6.32
7.89
9.47
10.85
11.83
12.29
12.12
11.31
9.91
8.08
6.10
4.29
2.98
2.34
2.32
2.61
2.72
2.15
0.59
-1.99
-5.23
-8.55
-11.31
-13.07
-13.67
-13.31
-12.36
-11.23
-10.26
-9.64
-9.44
-9.62
-10.13
-10.86
-11.64
-12.26
-12.52
-12.25
-11.44
-10.23
-8.88
-7.74
-7.09
-7.05
-7.52
-8.17
-8.50
-8.06
-6.60
-4.18
-1.18
1.84
4.37
6.13
7.15
7.70
8.16
8.87
9.95
11.35
12.79
13.91
14.37
13.95
12.66
10.68
8.32
5.90
3.65
1.78
0.42
-0.24
-0.02
1.16
3.17
5.61
7.89
9.39
9.71
8.81
7.02
4.92
3.11
2.02
1.80
2.34
3.30
4.27
4.82
4.66
3.66
1.88
-0.39
-2.76
-4.79
-6.13
-6.63
-6.38
-5.65
-4.77
-4.05
-3.73
-3.93
-4.66
-5.87
-7.43
-9.18
-10.94
-12.52
-13.77
-14.57
-14.88
-14.72
-14.25
-13.72
-13.38
-13.34
-13.47
-13.39
-12.62
-10.76
-7.74
-3.89
0.22
3.99
6.98
9.06
10.40
11.25
11.88
12.48
13.10
13.73
14.27
14.55
14.37
13.55
12.00
9.79
7.18
4.52
2.19
0.50
-0.37
-0.41
0.26
1.43
2.82
4.14
5.11
5.52
5.25
4.33
2.90
1.26
-0.28
-1.39
-1.81
-1.43
-0.33
1.23
2.87
4.18
4.85
4.73
3.89
2.55
1.05
-0.31
-1.29
-1.78
-1.81
-1.47
-0.92
-0.38
-0.03
-0.06
-0.59
-1.63
-3.13
-4.94
-6.81
-8.49
-9.74
-10.41
-10.48
-10.07
-9.38
-8.62
-7.99
-7.57
-7.38
-7.27
-7.00
-6.30
-4.92
-2.83
-0.19
2.66
5.36
7.63
9.40
10.79
11.98
13.15
14.37
15.59
16.72
17.61
18.10
18.10
17.56
16.57
15.31
14.07
13.09
12.50
12.23
12.01
11.45
10.21
8.06
5.05
1.44
-2.34
-5.84
-8.70
-10.73
-11.96
-12.57
-12.84
-13.10
-13.58
-14.40
-15.53
-16.76
-17.88
-18.67
-19.07
-19.14
-19.01
-18.80
-18.53
-18.10
-17.33
-16.10
-14.37
-12.27
-10.00
-7.76
-5.70
-3.95
-2.58
-1.67
-1.29
-1.40
-1.85
-2.43
-2.88
-3.08
-3.02
-2.79
-2.49
-2.21
-1.96
-1.69
-1.32
-0.76
0.09
1.32
2.94
4.83
6.76
8.41
9.46
9.73
9.25
8.25
7.08
6.10
5.58
5.61
6.11
6.80
7.39
7.61
7.32
6.54
5.42
4.16
3.00
2.10
1.59
1.54
1.94
2.71
3.68
4.61
5.30
5.61
5.52
5.16
4.68
4.20
3.83
3.60
3.51
3.53
3.63
3.68
3.55
3.09
2.26
1.09
-0.26
-1.61
-2.84
-3.84
-4.58
-5.00
-5.05
-4.72
-4.10
-3.35
-2.73
-2.44
-2.57
-3.11
-3.92
-4.90
-5.96
-7.01
-7.97
-8.70
-9.08
-9.07
-8.77
-8.35
-7.95
-7.57
-7.04
-6.11
-4.64
-2.70
-0.54
1.45
2.95
3.81
4.08
3.97
3.72
3.57
3.66
4.04
4.63
5.27
5.76
5.93
5.63
4.84
3.58
1.96
0.13
-1.70
-3.25
-4.21
-4.33
-3.50
-1.83
0.45
2.99
5.51
7.78
9.64
10.92
11.48
11.21
10.17
8.60
6.93
5.64
5.05
5.19
5.83
6.53
6.84
6.41
5.18
3.27
1.03
-1.13
-2.85
-3.92
-4.34
-4.32
-4.20
-4.28
-4.74
-5.58
-6.67
-7.77
-8.68
-9.29
-9.56
-9.53
-9.25
-8.78
-8.13
-7.30
-6.32
-5.28
-4.34
-3.66
-3.36
-3.39
-3.51
-3.34
-2.51
-0.83
1.62
4.45
7.14
9.16
10.23
10.33
9.71
8.77
7.92
7.44
7.42
7.74
8.19
8.48
8.37
7.69
6.41
4.61
2.45
0.17
-1.95
-3.65
-4.71
-5.01
-4.53
-3.32
-1.57
0.51
2.64
4.55
5.99
6.83
7.09
6.94
6.66
6.51
6.67
7.15
7.81
8.37
8.57
8.16
7.05
5.29
3.04
0.59
-1.76
-3.73
-5.11
-5.85
-5.99
-5.68
-5.10
-4.43
-3.86
-3.56
-3.67
-4.31
-5.53
-7.28
-9.40
-11.63
-13.65
-15.17
-16.00
-16.10
-15.54
-14.48
-13.09
-11.46
-9.64
-7.56
-5.20
-2.57
0.21
2.89
5.20
6.88
7.76
7.86
7.34
6.47
5.57
4.89
4.60
4.73
5.15
5.63
5.90
5.73
4.96
3.57
1.68
-0.51
-2.66
-4.45
-5.53
-5.67
-4.83
-3.18
-1.14
0.78
2.10
2.52
2.07
1.02
-0.17
-1.04
-1.25
-0.67
0.58
2.17
3.71
4.76
5.05
4.43
2.94
0.77
-1.76
-4.21
-6.07
-6.83
-6.08
-3.70
0.07
4.73
9.64
14.32
18.58
22.56
26.52
30.67
34.92
38.89
42.06
43.99
44.47
43.63
41.91
39.91
38.27
37.46
37.56
38.10
38.09
36.26
31.55
23.60
13.01
1.24
-9.91
-18.93
-25.10
-28.54
-29.93
-30.04
-29.39
-28.18
-26.48
-24.39
-22.23
-20.38
-19.09
-18.35
-17.76
-16.76
-14.81
-11.72
-7.79
-3.70
-0.25
1.99
2.99
3.21
3.44
4.32
6.09
8.40
10.51
11.62
11.19
9.13
5.68
1.35
-3.28
-7.64
-11.23
-13.65
-14.74
-14.62
-13.78
-12.89
-12.69
-13.65
-15.83
-18.80
-21.75
-23.76
-24.03
-22.20
-18.42
-13.33
-7.90
-3.15
0.10
1.42
0.77
-1.53
-4.98
-8.98
-12.92
-16.24
-18.49
-19.38
-18.90
-17.33
-15.22
-13.18
-11.68
-10.89
-10.61
-10.41
-9.89
-8.85
-7.36
-5.71
-4.20
-2.91
-1.73
-0.48
0.95
2.48
3.88
4.95
5.74
6.47
7.43
8.69
9.95
10.61
10.08
8.09
4.90
1.24
-1.96
-3.99
-4.59
-3.98
-2.76
-1.60
-0.99
-1.14
-1.93
-3.03
-4.09
-4.80
-5.00
-4.70
-4.08
-3.42
-3.08
-3.38
-4.41
-5.94
-7.42
-8.17
-7.66
-5.81
-3.05
-0.16
2.04
3.10
3.06
2.41
1.76
1.64
2.19
3.28
4.50
5.43
5.72
5.22
3.96
2.11
-0.11
-2.45
-4.75
-6.90
-8.84
-10.54
-11.95
-13.01
-13.65
-13.84
-13.50
-12.59
-11.10
-9.10
-6.78
-4.47
-2.60
-1.51
-1.38
-2.06
-3.15
-4.04
-4.12
-3.01
-0.69
2.54
6.09
9.34
11.79
13.22
13.64
13.25
12.26
10.93
9.50
8.28
7.57
7.52
8.05
8.77
9.14
8.67
7.20
4.95
2.47
0.33
-1.03
-1.47
-1.13
-0.33
0.54
1.08
0.99
0.15
-1.23
-2.62
-3.33
-2.82
-1.00
1.63
4.18
5.72
5.71
4.15
1.54
-1.52
-4.53
-7.19
-9.31
-10.69
-11.06
-10.24
-8.34
-5.83
-3.40
-1.74
-1.24
-1.86
-3.22
-4.72
-5.82
-6.18
-5.72
-4.60
-3.17
-1.82
-0.92
-0.59
-0.71
-0.87
-0.63
0.35
2.08
4.21
6.16
7.39
7.64
7.01
5.89
4.75
3.91
3.38
2.97
2.51
1.95
1.51
1.54
2.27
3.65
5.28
6.61
7.21
6.98
6.21
5.37
4.91
4.98
5.41
5.90
6.18
6.14
5.83
5.36
4.78
4.08
3.29
2.46
1.71
1.13
0.71
0.33
-0.12
-0.69
-1.31
-1.78
-1.95
-1.81
-1.51
-1.30
-1.44
-2.03
-2.99
-4.05
-4.92
-5.31
-5.12
-4.37
-3.27
-2.08
-1.05
-0.34
0.06
0.24
0.41
0.71
1.17
1.63
1.89
1.75
1.21
0.48
-0.13
-0.38
-0.23
0.10
0.32
0.19
-0.29
-0.89
-1.31
-1.33
-0.96
-0.40
0.05
0.19
-0.03
-0.54
-1.18
-1.87
-2.55
-3.21
-3.81
-4.19
-4.19
-3.69
-2.78
-1.80
-1.21
-1.32
-2.09
-3.06
-3.51
-2.86
-0.96
1.72
4.32
5.97
6.24
5.26
3.63
2.03
0.85
0.06
-0.68
-1.74
-3.20
-4.84
-6.21
-6.92
-6.87
-6.28
-5.56
-5.08
-4.97
-5.08
-5.13
-4.90
-4.38
-3.80
-3.49
-3.64
-4.15
-4.71
-4.90
-4.47
-3.48
-2.22
-1.12
-0.52
-0.51
-0.93
-1.44
-1.68
-1.40
-0.49
0.98
2.81
4.71
6.42
7.75
8.63
9.08
9.17
8.93
8.39
7.55
6.44
5.18
3.98
3.03
2.47
2.34
2.52
2.84
3.11
3.21
3.07
2.70
2.14
1.42
0.59
-0.30
-1.12
-1.70
-1.93
-1.79
-1.41
-1.03
-0.92
-1.27
-2.10
-3.31
-4.64
-5.86
-6.69
-6.96
-6.55
-5.44
-3.78
-1.83
0.08
1.57
2.40
2.45
1.75
0.48
-1.09
-2.64
-3.84
-4.44
-4.33
-3.63
-2.71
-2.02
-2.00
-2.88
-4.60
-6.87
-9.32
-11.63
-13.62
-15.19
-16.27
-16.72
-16.42
-15.38
-13.75
-11.84
-10.00
-8.38
-6.89
-5.25
-3.18
-0.62
2.14
4.59
6.18
6.60
5.89
4.43
2.74
1.31
0.38
-0.07
-0.28
-0.58
-1.21
-2.27
-3.67
-5.13
-6.32
-6.94
-6.75
-5.70
-3.91
-1.61
0.86
3.13
4.91
6.11
6.82
7.33
7.97
8.95
10.27
11.68
12.84
13.50
13.65
13.50
13.38
13.61
14.31
15.41
16.62
17.60
18.14
18.22
18.01
17.88
18.23
19.39
21.42
24.11
27.02
29.78
32.24
34.37
36.25
38.05
39.86
41.73
43.55
45.05
46.22
47.22
48.06
48.78
49.41
50.02
50.75
51.69
52.65
53.75
55.20
56.81
58.38
59.70
60.62
60.97
60.39
58.05
53.50
46.50
36.70
24.16
9.44
-6.48
-21.75
-33.01
-41.08
-48.52
-55.86
-63.77
-72.49
-81.72
-90.78
-99.02
-106.15
-112.52
-118.10
-122.52
-125.47
-126.44
-124.93
-120.83
-114.55
-107.10
-99.90
-93.71
-88.43
-83.46
-77.75
-70.26
-60.44
-48.53
-35.50
-22.78
-11.42
-1.92
5.61
11.39
15.80
19.23
22.03
24.52
26.97
29.80
33.41
37.85
42.92
48.11
52.77
56.26
58.15
58.26
56.82
54.25
51.03
47.50
43.84
40.12
36.36
32.61
28.98
25.50
22.21
19.03
15.91
12.81
9.76
6.81
4.04
1.46
-0.88
-2.96
-4.73
-6.15
-7.27
-8.24
-9.27
-10.60
-12.33
-14.44
-16.73
-18.90
-20.63
-21.70
-22.06
-21.80
-21.15
-20.33
-19.56
-18.95
-18.51
-18.22
-18.04
-17.96
-17.96
-17.99
-17.98
-17.82
-17.45
-16.83
-16.01
-15.07
-14.10
-13.13
-12.19
-11.26
-10.33
-9.43
-8.56
-7.68
-6.65
-5.24
-3.23
-0.48
3.05
7.22
11.81
16.57
21.18
25.32
28.66
30.92
31.84
31.35
29.55
26.73
23.32
19.76
16.45
13.62
11.37
9.68
8.45
7.56
6.90
6.31
5.65
4.80
3.67
2.22
0.54
-1.23
-2.89
-4.21
-5.02
-5.22
-4.82
-3.94
-2.79
-1.57
-0.45
0.49
1.25
1.86
2.36
2.77
3.13
3.51
3.99
4.67
5.59
6.76
8.11
9.52
10.78
11.66
11.85
11.13
9.44
6.94
3.99
1.01
-1.69
-3.96
-5.80
-7.26
-8.33
-9.01
-9.34
-9.54
-9.97
-10.99
-12.81
-15.32
-18.12
-20.70
-22.66
-23.79
-24.17
-23.99
-23.49
-22.83
-22.13
-21.45
-20.82
-20.22
-19.57
-18.75
-17.61
-16.04
-13.96
-11.38
-8.42
-5.29
-2.34
0.05
1.54
1.99
1.44
0.19
-1.38
-2.90
-4.09
-4.81
-4.99
-4.63
-3.76
-2.50
-1.00
0.54
1.97
3.23
4.32
5.31
6.35
7.63
9.31
11.51
14.17
17.08
19.94
22.52
24.71
26.53
27.98
28.93
29.09
28.24
26.34
23.77
21.20
19.30
18.51
18.82
19.85
21.08
22.04
22.45
22.22
21.39
20.08
18.49
16.88
15.57
14.90
15.20
16.75
19.82
24.61
31.23
39.63
49.56
60.60
72.15
83.53
94.08
103.24
110.55
115.66
118.20
117.73
113.75
106.02
94.67
80.36
64.08
46.84
29.43
12.41
-3.63
-17.97
-29.97
-39.48
-47.26
-54.90
-64.22
-76.23
-90.41
-104.73
-116.39
-122.98
-123.29
-117.55
-107.01
-93.24
-77.73
-61.75
-46.47
-33.04
-22.55
-15.67
-12.49
-12.45
-14.55
-17.64
-20.88
-23.87
-26.70
-29.70
-33.19
-37.20
-41.40
-45.29
-48.35
-50.33
-51.21
-51.17
-50.51
-49.46
-48.10
-46.47
-44.65
-42.84
-41.34
-40.40
-40.13
-40.43
-41.03
-41.47
-41.45
-40.95
-40.28
-39.89
-39.98
-40.34
-40.42
-39.46
-36.58
-31.28
-23.65
-14.22
-3.82
7.12
18.31
29.38
39.91
50.05
60.12
70.51
81.35
92.09
102.23
110.87
116.80
119.21
118.83
117.02
114.98
113.04
110.28
106.34
101.07
94.51
87.19
80.90
77.29
77.05
79.78
83.82
88.79
94.68
101.36
101.91
91.89
71.67
46.50
26.93
12.96
2.85
-4.83
-12.12
-19.37
-25.49
-29.52
-31.41
-32.14
-33.71
-36.60
-40.59
-45.31
-50.16
-54.02
-56.13
-56.47
-55.66
-54.92
-54.16
-52.81
-50.53
-47.36
-43.51
-39.74
-37.13
-36.72
-39.32
-44.30
-50.34
-56.10
-60.45
-62.60
-62.27
-59.68
-55.42
-50.37
-45.08
-40.04
-35.77
-32.68
-30.95
-30.44
-30.70
-30.94
-30.33
-28.03
-23.58
-17.14
-9.37
-1.29
6.10
12.14
16.58
19.54
21.42
22.67
23.75
25.05
26.86
29.32
32.30
35.45
38.13
39.61
39.17
36.23
30.61
22.56
12.86
2.69
-6.63
-14.03
-18.97
-21.58
-22.50
-22.62
-22.63
-22.86
-23.19
-23.26
-22.71
-21.41
-19.53
-17.41
-15.46
-13.98
-13.05
-12.55
-12.27
-11.99
-11.56
-10.92
-10.09
-9.13
-8.11
-7.10
-6.13
-5.23
-4.40
-3.60
-2.76
-1.78
-0.56
0.99
2.84
4.87
6.84
8.51
9.69
10.32
10.53
10.57
10.63
10.80
10.98
10.92
10.38
9.18
7.32
4.98
2.39
-0.23
-2.75
-5.14
-7.42
-9.61
-11.67
-13.57
-15.29
-16.85
-18.38
-20.02
-21.86
-23.93
-26.10
-28.17
-29.92
-31.13
-31.66
-31.47
-30.59
-29.16
-27.36
-25.35
-23.28
-21.18
-19.04
-16.77
-14.31
-11.68
-9.05
-6.67
-4.85
-3.81
-3.57
-3.98
-4.73
-5.48
-5.99
-6.16
-6.00
-5.57
-4.89
-3.89
-2.46
-0.47
2.12
5.34
9.12
13.36
17.85
22.26
26.15
29.03
30.47
30.27
28.58
25.85
22.75
19.90
17.72
16.30
15.49
14.96
14.46
13.85
13.18
12.58
12.15
11.85
11.47
10.75
9.41
7.38
4.76
1.84
-1.05
-3.70
-6.03
-8.13
-10.07
-11.84
-13.31
-14.26
-14.57
-14.30
-13.66
-12.95
-12.40
-12.05
-11.75
-11.29
-10.50
-9.34
-7.90
-6.29
-4.55
-2.64
-0.51
1.84
4.31
6.70
8.85
10.66
12.12
13.31
14.30
15.13
15.74
16.05
15.98
15.54
14.81
13.93
13.02
12.12
11.09
9.69
7.64
4.87
1.52
-2.02
-5.29
-8.01
-10.12
-11.82
-13.39
-14.99
-16.64
-18.25
-19.73
-21.03
-22.05
-22.47
-21.73
-19.20
-14.53
-7.96
-0.37
6.97
12.94
16.89
18.84
19.22
18.52
17.05
14.97
12.43
9.83
7.79
6.94
7.53
9.29
11.45
13.09
13.57
12.77
11.15
9.49
8.56
8.87
10.54
13.32
16.74
20.30
23.56
26.20
28.00
28.80
28.46
26.85
23.92
19.81
14.95
10.02
5.82
3.06
2.09
2.80
4.66
6.87
8.64
9.39
8.83
7.00
4.17
0.77
-2.81
-6.22
-9.28
-11.90
-14.08
-15.81
-17.08
-17.89
-18.28
-18.44
-18.63
-19.15
-20.20
-21.74
-23.61
-25.52
-27.28
-28.85
-30.35
-31.98
-33.90
-36.15
-38.62
-41.08
-43.19
-44.60
-45.00
-44.19
-42.21
-39.26
-35.70
-31.86
-27.95
-23.96
-19.80
-15.40
-10.89
-6.54
-2.66
0.58
3.32
5.96
8.91
12.38
16.25
20.06
23.31
25.64
26.96
27.48
27.56
27.58
27.86
28.66
30.17
32.44
35.29
38.30
40.82
42.23
42.16
40.67
38.26
35.72
33.79
32.97
33.33
34.56
36.09
37.32
37.74
37.08
35.30
32.53
29.06
25.26
21.53
18.20
15.44
13.16
11.03
8.50
5.06
0.39
-5.47
-12.12
-18.98
-25.42
-31.00
-35.53
-38.94
-41.23
-42.40
-42.45
-41.46
-39.74
-37.78
-36.15
-35.29
-35.39
-36.31
-37.61
-38.74
-39.07
-38.08
-35.38
-30.83
-24.56
-17.01
-8.87
-0.96
5.95
11.35
15.04
17.14
18.02
18.14
17.92
17.65
17.50
17.53
17.73
18.08
18.53
19.03
19.51
19.91
20.20
20.39
20.54
20.61
20.51
20.03
18.94
17.15
14.84
12.44
10.50
9.50
9.55
10.43
11.57
12.35
12.30
11.27
9.44
7.22
5.05
3.29
2.10
1.49
1.32
1.38
1.45
1.35
0.95
0.24
-0.68
-1.67
-2.56
-3.20
-3.62
-3.99
-4.57
-5.53
-6.84
-8.31
-9.64
-10.64
-11.23
-11.48
-11.61
-11.87
-12.44
-13.34
-14.42
-15.28
-15.38
-14.03
-10.78
-5.67
0.60
6.88
11.99
15.08
15.97
15.13
13.93
13.62
14.85
17.38
20.42
23.17
25.22
26.64
27.85
30.03
33.87
39.17
44.91
49.97
53.78
56.35
57.86
58.35
58.84
59.86
61.19
61.94
61.38
59.47
56.82
54.30
52.69
54.09
59.93
70.18
83.28
97.09
109.92
120.89
129.76
126.74
106.70
71.70
30.39
-8.06
-38.99
-62.20
-79.42
-92.33
-101.82
-106.59
-105.81
-100.25
-92.41
-85.09
-80.01
-77.43
-76.66
-76.89
-76.28
-73.53
-68.37
-61.49
-53.84
-46.14
-38.96
-32.95
-28.81
-26.07
-23.69
-20.50
-15.66
-8.87
-0.53
8.21
15.69
20.03
20.03
15.40
6.84
-4.13
-15.51
-25.37
-32.35
-35.95
-36.48
-34.50
-30.60
-25.55
-20.05
-14.65
-9.75
-5.68
-2.49
-0.19
1.54
3.28
5.13
6.97
8.62
9.83
10.20
9.67
8.19
6.20
4.57
3.53
3.12
3.49
4.73
6.54
8.56
9.66
8.85
5.68
-0.63
-10.11
-21.58
-33.24
-43.66
-51.77
-58.14
-63.92
-64.01
-55.95
-41.23
-23.68
-6.28
6.36
15.81
22.63
26.04
24.60
17.87
5.59
-10.74
-28.17
-43.64
-54.42
-59.85
-60.34
-56.80
-51.01
-44.63
-38.48
-32.71
-27.30
-21.84
-16.47
-11.15
-5.67
-0.22
4.75
9.00
12.33
14.45
15.34
14.88
13.33
11.39
9.60
8.23
7.28
6.47
5.37
3.77
1.67
-0.56
-2.37
-3.35
-3.43
-2.75
-1.59
-0.18
1.37
3.12
5.22
7.93
11.38
15.47
19.79
23.70
26.48
27.59
26.79
24.23
20.32
15.66
10.88
6.54
3.05
0.56
-1.03
-2.06
-3.06
-4.53
-6.80
-9.93
-13.72
-17.79
-21.76
-25.39
-28.65
-31.62
-34.42
-37.08
-39.44
-41.21
-42.04
-41.67
-40.07
-37.45
-34.20
-30.72
-27.17
-23.47
-19.28
-14.13
-7.59
0.60
10.48
21.81
34.11
46.61
58.32
68.08
74.80
77.79
76.94
72.79
66.32
58.63
50.58
42.63
34.93
27.52
20.48
14.05
8.52
4.10
0.78
-1.63
-3.39
-4.70
-5.60
-6.00
-5.78
-4.92
-3.61
-2.17
-0.99
-0.27
0.01
0.14
0.54
1.50
3.13
5.35
7.93
10.60
13.11
15.12
16.25
16.10
14.45
11.47
7.72
4.05
1.27
-0.17
-0.39
-0.01
0.15
-0.61
-2.62
-5.78
-9.68
-13.80
-17.77
-21.45
-24.91
-28.27
-31.56
-34.62
-37.18
-38.98
-39.93
-40.15
-39.92
-39.56
-39.26
-39.01
-38.58
-37.59
-35.61
-32.24
-27.06
-19.73
-10.05
1.87
15.40
29.34
42.12
52.20
58.48
60.67
59.28
55.32
49.91
43.86
37.66
31.55
25.73
20.48
16.08
12.72
10.31
8.62
7.32
6.21
5.22
4.47
4.03
3.88
3.83
3.56
2.81
1.44
-0.47
-2.63
-4.62
-5.90
-6.00
-4.54
-1.49
2.82
7.60
11.85
14.59
15.21
13.71
10.65
6.98
3.72
1.57
0.74
0.97
1.65
2.14
1.95
0.88
-1.00
-3.43
-6.18
-9.08
-12.06
-15.07
-18.02
-20.77
-23.14
-25.06
-26.54
-27.64
-28.47
-29.11
-29.58
-29.97
-30.38
-30.91
-31.60
-32.27
-32.50
-31.66
-29.06
-24.22
-17.00
-7.78
2.56
12.87
21.96
28.95
33.45
35.60
35.86
34.79
32.84
30.25
27.15
23.63
19.88
16.18
12.84
10.10
8.05
6.69
5.93
5.66
5.81
6.32
7.09
8.01
8.92
9.62
9.96
9.84
9.25
8.33
7.27
6.31
5.64
5.43
5.73
6.53
7.69
8.88
9.65
9.54
8.30
6.09
3.43
1.12
-0.18
-0.23
0.65
1.75
2.27
1.68
-0.11
-2.77
-5.80
-8.79
-11.54
-14.07
-16.46
-18.78
-20.93
-22.69
-23.84
-24.25
-23.98
-23.23
-22.30
-21.44
-20.80
-20.41
-20.17
-19.97
-19.67
-19.09
-18.01
-16.16
-13.23
-9.05
-3.68
2.50
8.81
14.51
18.96
21.84
23.23
23.43
22.87
21.82
20.42
18.64
16.46
13.96
11.35
8.95
7.03
5.83
5.44
5.88
7.08
8.97
11.42
14.24
17.13
19.69
21.48
22.18
21.70
20.26
18.37
16.65
15.66
15.67
16.55
17.85
18.88
18.97
17.61
14.56
9.98
4.35
-1.59
-7.09
-11.52
-14.58
-16.36
-17.24
-17.73
-18.29
-19.17
-20.42
-21.92
-23.54
-25.16
-26.74
-28.21
-29.50
-30.51
-31.11
-31.18
-30.68
-29.63
-28.18
-26.58
-25.03
-23.61
-22.15
-20.19
-17.16
-12.59
-6.30
1.45
10.03
18.60
26.28
32.34
36.32
38.07
37.78
35.89
32.98
29.59
26.06
22.51
18.93
15.29
11.65
8.16
5.00
2.28
0.10
-1.48
-2.34
-2.38
-1.53
0.07
2.16
4.36
6.33
7.82
8.74
9.11
9.00
8.53
7.92
7.45
7.46
8.15
9.47
11.07
12.35
12.66
11.54
8.88
4.94
0.36
-4.13
-7.81
-10.19
-11.10
-10.75
-9.59
-8.25
-7.28
-7.08
-7.78
-9.33
-11.56
-14.30
-17.36
-20.55
-23.64
-26.31
-28.24
-29.25
-29.36
-28.87
-28.24
-27.88
-27.96
-28.26
-28.23
-27.13
-24.33
-19.47
-12.62
-4.21
5.08
14.40
22.89
29.78
34.50
36.76
36.65
34.53
30.95
26.52
21.74
17.00
12.61
8.84
5.88
3.84
2.66
2.16
2.12
2.44
3.14
4.39
6.26
8.66
11.27
13.63
15.30
15.99
15.70
14.63
13.21
11.97
11.37
11.72
13.00
14.82
16.53
17.39
16.88
14.84
11.55
7.55
3.47
-0.13
-2.85
-4.50
-5.08
-4.83
-4.15
-3.58
-3.57
-4.42
-6.10
-8.27
-10.45
-12.07
-12.68
-12.04
-10.16
-7.32
-3.99
-0.73
2.01
3.98
5.24
6.03
6.69
7.41
8.24
9.06
9.72
10.07
10.05
9.63
8.82
7.59
5.87
3.61
0.88
-2.07
-4.89
-7.13
-8.49
-8.90
-8.54
-7.78
-6.96
-6.29
-5.82
-5.49
-5.27
-5.23
-5.50
-6.17
-7.17
-8.31
-9.29
-9.81
-9.67
-8.75
-7.10
-4.90
-2.51
-0.39
1.02
1.44
0.91
-0.24
-1.49
-2.40
-2.72
-2.56
-2.22
-2.00
-2.04
-2.20
-2.19
-1.70
-0.69
0.54
1.50
1.69
0.88
-0.69
-2.47
-3.85
-4.49
-4.51
-4.35
-4.53
-5.29
-6.50
-7.70
-8.41
-8.33
-7.47
-6.10
-4.55
-3.09
-1.80
-0.67
0.40
1.45
2.47
3.37
4.08
4.56
4.82
4.93
4.98
5.10
5.40
6.02
7.05
8.51
10.29
12.12
13.65
14.48
14.37
13.24
11.28
8.92
6.69
5.09
4.43
4.73
5.60
6.41
6.48
5.32
2.80
-0.81
-5.07
-9.57
-14.12
-18.73
-23.39
-27.96
-32.08
-35.36
-37.66
-39.22
-40.59
-42.35
-44.74
-47.54
-50.09
-51.53
-51.01
-47.85
-41.53
-31.79
-18.72
-2.90
14.47
31.77
47.21
59.28
67.11
70.53
70.03
66.56
61.32
55.61
50.61
47.20
45.73
45.90
46.78
47.05
45.39
40.96
33.68
24.29
14.13
4.66
-3.01
-8.41
-11.79
-13.86
-15.40
-17.06
-19.13
-21.61
-24.36
-27.15
-29.80
-32.05
-33.65
-34.32
-33.91
-32.45
-30.16
-27.46
-24.80
-22.55
-20.84
-19.56
-18.41
-17.04
-15.16
-12.69
-9.65
-6.22
-2.66
0.59
3.02
4.10
3.58
1.62
-1.23
-4.27
-7.07
-9.75
-12.85
-16.93
-22.08
-27.77
-32.97
-36.73
-38.63
-38.89
-38.23
-37.32
-36.51
-35.72
-34.57
-32.66
-29.81
-26.14
-22.05
-18.04
-14.47
-11.36
-8.20
-4.11
1.81
9.96
19.92
30.44
39.89
46.89
50.70
51.33
49.28
45.23
39.77
33.51
27.09
21.24
16.59
13.52
11.92
11.35
11.24
11.12
10.85
10.51
10.33
10.48
10.97
11.66
12.30
12.62
12.46
11.84
10.84
9.54
7.83
5.53
2.52
-0.99
-4.39
-6.86
-7.70
-6.76
-4.44
-1.60
0.79
2.01
1.72
-0.00
-2.72
-5.73
-8.19
-9.42
-9.16
-7.74
-6.06
-5.18
-5.90
-8.37
-12.07
-16.16
-19.91
-23.02
-25.62
-27.99
-30.32
-32.50
-34.31
-35.54
-36.22
-36.58
-36.80
-36.82
-36.23
-34.36
-30.60
-24.72
-17.01
-8.24
0.57
8.54
15.12
20.22
24.07
27.06
29.56
31.74
33.55
34.71
34.81
33.45
30.44
25.91
20.38
14.59
9.33
5.16
2.22
0.33
-0.91
-1.86
-2.73
-3.52
-4.15
-4.52
-4.55
-4.24
-3.59
-2.58
-1.19
0.56
2.59
4.78
6.97
9.03
10.84
12.34
13.49
14.28
14.75
15.02
15.22
15.51
15.95
16.59
17.37
18.21
18.90
19.18
18.67
17.02
14.06
9.96
5.26
0.70
-3.03
-5.52
-6.77
-7.06
-6.82
-6.39
-6.01
-5.79
-5.81
-6.12
-6.73
-7.55
-8.41
-9.13
-9.59
-9.86
-10.11
-10.56
-11.29
-12.24
-13.11
-13.53
-13.18
-11.97
-10.10
-8.00
-6.25
-5.26
-5.20
-5.84
-6.71
-7.28
-7.12
-6.05
-4.13
-1.59
1.27
4.13
6.66
8.61
9.76
10.05
9.59
8.68
7.74
7.14
7.12
7.66
8.56
9.48
10.11
10.27
9.90
9.07
7.80
6.12
4.09
1.85
-0.28
-1.95
-2.87
-2.98
-2.52
-1.87
-1.39
-1.26
-1.41
-1.63
-1.68
-1.45
-0.99
-0.43
0.09
0.46
0.65
0.70
0.60
0.35
-0.13
-0.93
-2.09
-3.50
-4.98
-6.22
-6.99
-7.21
-6.99
-6.54
-6.12
-5.84
-5.65
-5.46
-5.15
-4.81
-4.59
-4.72
-5.31
-6.31
-7.48
-8.48
-9.00
-8.77
-7.67
-5.72
-3.08
-0.02
3.11
5.98
8.32
10.00
11.03
11.55
11.73
11.75
11.76
11.85
12.03
12.21
12.26
12.00
11.36
10.40
9.26
8.18
7.29
6.65
6.15
5.66
5.04
4.22
3.18
1.97
0.65
-0.70
-1.98
-3.07
-3.87
-4.26
-4.18
-3.64
-2.79
-1.89
-1.33
-1.45
-2.43
-4.19
-6.37
-8.51
-10.21
-11.29
-11.78
-11.85
-11.68
-11.43
-11.17
-10.98
-10.93
-11.03
-11.17
-11.14
-10.69
-9.62
-7.97
-5.94
-3.88
-2.12
-0.84
-0.04
0.44
0.80
1.21
1.72
2.31
2.85
3.21
3.24
2.91
2.24
1.36
0.48
-0.15
-0.32
0.09
1.12
2.61
4.36
6.12
7.68
8.92
9.81
10.33
10.51
10.39
10.03
9.54
9.00
8.42
7.75
6.88
5.72
4.30
2.77
1.38
0.41
0.01
0.23
0.95
1.93
2.86
3.42
3.34
2.46
0.80
-1.45
-3.92
-6.17
-7.75
-8.40
-8.07
-6.95
-5.42
-3.93
-2.86
-2.44
-2.67
-3.35
-4.16
-4.74
-4.84
-4.38
-3.46
-2.34
-1.30
-0.53
-0.06
0.22
0.51
0.97
1.65
2.50
3.43
4.29
5.01
5.52
5.77
5.72
5.37
4.71
3.86
2.97
2.29
2.04
2.37
3.21
4.31
5.27
5.75
5.56
4.77
3.67
2.62
1.87
1.47
1.24
0.90
0.20
-0.97
-2.55
-4.34
-6.13
-7.69
-8.89
-9.57
-9.66
-9.11
-7.97
-6.37
-4.48
-2.54
-0.73
0.79
1.93
2.63
2.82
2.50
1.71
0.60
-0.64
-1.79
-2.72
-3.36
-3.78
-4.04
-4.24
-4.43
-4.64
-4.85
-4.99
-4.99
-4.75
-4.22
-3.42
-2.42
-1.33
-0.23
0.90
2.11
3.46
4.94
6.41
7.69
8.61
9.08
9.12
8.76
8.07
7.07
5.83
4.49
3.29
2.49
2.24
2.54
3.15
3.76
4.13
4.17
3.98
3.72
3.49
3.24
2.82
2.04
0.86
-0.61
-2.16
-3.59
-4.73
-5.54
-6.02
-6.16
-5.95
-5.36
-4.41
-3.19
-1.88
-0.68
0.21
0.59
0.36
-0.53
-1.98
-3.76
-5.52
-6.89
-7.60
-7.54
-6.82
-5.69
-4.48
-3.42
-2.69
-2.33
-2.28
-2.40
-2.46
-2.23
-1.58
-0.53
0.70
1.81
2.58
2.95
3.11
3.42
4.23
5.77
8.02
10.77
13.66
16.30
18.27
19.21
18.91
17.37
14.83
11.75
8.63
5.82
3.47
1.55
-0.07
-1.44
-2.53
-3.26
-3.59
-3.58
-3.37
-3.11
-2.92
-2.85
-2.92
-3.20
-3.75
-4.60
-5.73
-7.03
-8.34
-9.52
-10.46
-11.06
-11.20
-10.71
-9.50
-7.62
-5.33
-3.04
-1.23
-0.23
-0.13
-0.79
-1.87
-3.06
-4.12
-4.93
-5.43
-5.58
-5.33
-4.68
-3.74
-2.69
-1.83
-1.38
-1.45
-1.92
-2.54
-2.98
-2.98
-2.40
-1.30
0.17
1.82
3.47
4.97
6.23
7.20
7.91
8.39
8.69
8.82
8.77
8.52
8.02
7.23
6.13
4.72
3.10
1.49
0.19
-0.47
-0.32
0.53
1.72
2.79
3.36
3.32
2.80
2.05
1.25
0.41
-0.52
-1.61
-2.80
-3.90
-4.72
-5.11
-5.12
-4.91
-4.65
-4.50
-4.46
-4.44
-4.28
-3.83
-2.99
-1.80
-0.41
0.92
1.91
2.38
2.28
1.70
0.87
0.05
-0.55
-0.80
-0.67
-0.22
0.41
1.01
1.38
1.30
0.69
-0.44
-1.94
-3.55
-5.02
-6.11
-6.73
-6.83
-6.44
-5.60
-4.34
-2.71
-0.81
1.21
3.16
4.84
6.10
6.89
7.20
7.07
6.50
5.49
4.03
2.19
0.17
-1.72
-3.13
-3.77
-3.57
-2.66
-1.37
-0.11
0.76
1.00
0.63
-0.17
-1.08
-1.81
-2.20
-2.21
-1.93
-1.42
-0.73
0.13
1.12
2.12
2.96
3.50
3.77
3.95
4.29
4.94
5.83
6.71
7.23
7.15
6.45
5.28
3.83
2.27
0.68
-0.90
-2.36
-3.55
-4.29
-4.43
-3.97
-3.08
-2.03
-1.13
-0.65
-0.69
-1.19
-1.92
-2.61
-3.05
-3.17
-3.10
-3.06
-3.27
-3.76
-4.39
-4.89
-5.02
-4.70
-4.06
-3.36
-2.86
-2.68
-2.78
-3.04
-3.38
-3.78
-4.31
-4.97
-5.67
-6.17
-6.17
-5.48
-4.14
-2.42
-0.69
0.72
1.71
2.40
3.05
3.87
4.84
5.77
6.38
6.51
6.23
5.82
5.56
5.57
5.67
5.54
4.90
3.66
2.07
0.52
-0.63
-1.22
-1.36
-1.31
-1.33
-1.53
-1.89
-2.27
-2.58
-2.85
-3.19
-3.77
-4.68
-5.89
-7.21
-8.43
-9.33
-9.85
-10.04
-10.00
-9.82
-9.50
-8.94
-8.02
-6.68
-5.03
-3.30
-1.76
-0.61
0.12
0.57
0.99
1.59
2.49
3.68
5.03
6.37
7.56
8.50
9.15
9.42
9.25
8.57
7.42
5.99
4.58
3.54
3.12
3.39
4.21
5.33
6.43
7.27
7.74
7.81
7.59
7.20
6.80
6.53
6.51
6.79
7.27
7.71
7.76
7.08
5.52
3.22
0.64
-1.63
-3.03
-3.32
-2.60
-1.28
0.12
1.20
1.77
1.81
1.41
0.63
-0.50
-1.93
-3.60
-5.36
-7.02
-8.40
-9.34
-9.80
-9.83
-9.62
-9.41
-9.41
-9.74
-10.31
-10.92
-11.26
-11.08
-10.28
-8.97
-7.41
-5.84
-4.43
-3.18
-1.93
-0.50
1.31
3.56
6.24
9.25
12.40
15.39
17.87
19.43
19.77
18.82
16.77
14.12
11.46
9.33
8.06
7.68
7.99
8.70
9.51
10.15
10.48
10.39
9.83
8.82
7.42
5.76
4.05
2.49
1.21
0.25
-0.47
-1.09
-1.73
-2.39
-2.98
-3.35
-3.33
-2.92
-2.19
-1.38
-0.75
-0.53
-0.79
-1.54
-2.66
-3.98
-5.39
-6.73
-7.87
-8.65
-8.93
-8.63
-7.82
-6.71
-5.66
-5.02
-5.03
-5.69
-6.74
-7.74
-8.25
-8.01
-7.08
-5.78
-4.59
-3.88
-3.80
-4.16
-4.61
-4.82
-4.58
-3.89
-2.88
-1.67
-0.38
0.90
1.99
2.65
2.61
1.75
0.22
-1.58
-3.13
-4.00
-4.03
-3.32
-2.15
-0.84
0.45
1.68
2.88
4.09
5.25
6.24
6.95
7.29
7.24
6.78
5.85
4.44
2.57
0.41
-1.75
-3.52
-4.62
-4.91
-4.49
-3.64
-2.65
-1.77
-1.11
-0.72
-0.62
-0.88
-1.56
-2.68
-4.14
-5.75
-7.27
-8.49
-9.30
-9.69
-9.70
-9.38
-8.81
-8.06
-7.22
-6.33
-5.38
-4.26
-2.83
-1.03
1.02
3.11
4.95
6.32
7.19
7.67
7.93
8.12
8.31
8.47
8.54
8.47
8.20
7.66
6.79
5.52
3.90
2.08
0.31
-1.10
-1.87
-1.87
-1.11
0.25
1.92
3.61
5.02
6.00
6.51
6.63
6.51
6.29
6.10
6.02
6.10
6.34
6.68
6.96
6.96
6.42
5.27
3.60
1.76
0.15
-0.89
-1.28
-1.19
-0.95
-0.85
-1.09
-1.68
-2.54
-3.63
-4.93
-6.43
-8.08
-9.72
-11.14
-12.15
-12.60
-12.52
-12.02
-11.31
-10.60
-10.09
-9.90
-10.04
-10.36
-10.59
-10.42
-9.63
-8.27
-6.58
-4.94
-3.67
-2.85
-2.31
-1.75
-0.88
0.42
2.08
3.86
5.50
6.75
7.48
7.66
7.36
6.73
6.00
5.40
5.15
5.40
6.21
7.50
9.15
10.92
12.53
13.70
14.22
14.02
13.14
11.75
10.06
8.26
6.51
4.98
3.80
3.10
2.90
3.10
3.39
3.38
2.69
1.16
-1.10
-3.66
-5.95
-7.41
-7.70
-6.79
-4.91
-2.47
0.10
2.46
4.40
5.79
6.57
6.67
6.10
4.93
3.38
1.74
0.29
-0.80
-1.55
-2.13
-2.75
-3.58
-4.59
-5.62
-6.42
-6.80
-6.69
-6.20
-5.48
-4.70
-3.94
-3.17
-2.35
-1.41
-0.29
1.07
2.72
4.69
6.82
8.80
10.17
10.55
9.81
8.25
6.50
5.30
5.11
5.87
7.03
7.79
7.45
5.77
3.01
-0.23
-3.24
-5.53
-6.90
-7.43
-7.28
-6.62
-5.60
-4.36
-3.15
-2.29
-2.04
-2.49
-3.50
-4.80
-6.06
-7.09
-7.84
-8.40
-8.80
-9.04
-9.02
-8.65
-7.95
-7.06
-6.24
-5.71
-5.64
-6.07
-6.95
-8.14
-9.47
-10.76
-11.81
-12.46
-12.57
-12.04
-10.92
-9.40
-7.78
-6.44
-5.66
-5.59
-6.15
-7.06
-7.90
-8.33
-8.10
-7.13
-5.49
-3.34
-0.85
1.77
4.31
6.58
8.46
9.94
11.09
12.04
12.87
13.58
14.09
14.28
14.02
13.23
11.84
9.84
7.27
4.28
1.22
-1.43
-3.18
-3.70
-2.94
-1.17
1.16
3.54
5.53
6.88
7.48
7.38
6.77
5.93
5.18
4.82
4.96
5.51
6.16
6.53
6.29
5.35
3.89
2.29
1.01
0.42
0.67
1.69
3.16
4.61
5.60
5.74
4.87
3.04
0.48
-2.44
-5.31
-7.79
-9.63
-10.73
-11.08
-10.76
-9.87
-8.58
-7.04
-5.46
-3.98
-2.68
-1.53
-0.35
1.08
2.96
5.31
7.99
10.72
13.21
15.26
16.88
18.17
19.25
20.20
21.00
21.56
21.76
21.54
20.83
19.59
17.79
15.44
12.61
9.45
6.23
3.26
0.80
-1.00
-2.18
-2.96
-3.64
-4.52
-5.75
-7.28
-8.93
-10.44
-11.67
-12.62
-13.41
-14.14
-14.80
-15.30
-15.52
-15.43
-15.17
-14.99
-15.09
-15.50
-16.02
-16.34
-16.15
-15.31
-13.87
-12.09
-10.28
-8.72
-7.55
-6.81
-6.41
-6.22
-6.13
-6.02
-5.82
-5.51
-5.12
-4.68
-4.25
-3.89
-3.68
-3.67
-3.92
-4.41
-5.06
-5.70
-6.13
-6.19
-5.81
-5.01
-3.93
-2.75
-1.60
-0.58
0.28
1.01
1.63
2.13
2.51
2.77
2.95
3.10
3.29
3.58
4.02
4.58
5.18
5.65
5.85
5.68
5.16
4.37
3.48
2.60
1.80
1.09
0.43
-0.17
-0.68
-1.05
-1.28
-1.41
-1.52
-1.66
-1.84
-2.03
-2.13
-2.08
-1.84
-1.41
-0.86
-0.28
0.21
0.56
0.81
1.10
1.64
2.61
4.03
5.71
7.31
8.46
8.91
8.64
7.83
6.73
5.59
4.49
3.37
2.14
0.76
-0.65
-1.86
-2.65
-2.92
-2.76
-2.40
-2.10
-2.04
-2.23
-2.52
-2.69
-2.57
-2.09
-1.33
-0.50
0.18
0.57
0.70
0.75
0.97
1.56
2.59
3.97
5.49
6.92
8.05
8.80
9.10
8.93
8.27
7.15
5.68
4.04
2.43
1.05
0.02
-0.60
-0.86
-0.80
-0.55
-0.21
0.09
0.22
0.12
-0.24
-0.81
-1.49
-2.17
-2.80
-3.32
-3.71
-3.94
-4.02
-4.02
-4.02
-4.10
-4.28
-4.50
-4.60
-4.44
-3.95
-3.17
-2.27
-1.46
-0.88
-0.60
-0.56
-0.68
-0.88
-1.14
-1.48
-1.94
-2.52
-3.15
-3.71
-4.12
-4.31
-4.29
-4.14
-3.93
-3.76
-3.63
-3.50
-3.26
-2.78
-2.00
-0.95
0.18
1.14
1.73
1.89
1.74
1.52
1.46
1.63
1.94
2.21
2.24
1.99
1.56
1.16
0.98
1.07
1.37
1.71
1.94
2.01
2.03
2.15
2.55
3.28
4.30
5.43
6.49
7.28
7.69
7.71
7.39
6.86
6.23
5.58
4.97
4.46
4.09
3.90
3.88
3.89
3.71
3.06
1.81
0.04
-1.94
-3.70
-4.86
-5.29
-5.10
-4.54
-3.90
-3.35
-2.96
-2.72
-2.64
-2.73
-2.99
-3.39
-3.85
-4.27
-4.54
-4.60
-4.42
-3.98
-3.32
-2.50
-1.65
-0.88
-0.30
0.10
0.41
0.83
1.46
2.29
3.15
3.74
3.82
3.31
2.36
1.27
0.42
0.04
0.18
0.70
1.34
1.91
2.30
2.53
2.64
2.63
2.46
2.08
1.49
0.79
0.16
-0.23
-0.28
-0.01
0.46
1.00
1.49
1.86
2.07
2.10
1.96
1.69
1.38
1.16
1.18
1.47
1.99
2.56
3.01
3.20
3.10
2.76
2.22
1.43
0.34
-1.14
-2.95
-4.91
-6.71
-8.04
-8.74
-8.84
-8.57
-8.22
-8.00
-7.99
-8.13
-8.28
-8.35
-8.29
-8.13
-7.86
-7.48
-6.98
-6.34
-5.59
-4.77
-3.94
-3.11
-2.30
-1.54
-0.90
-0.46
-0.31
-0.42
-0.74
-1.16
-1.62
-2.10
-2.62
-3.12
-3.48
-3.50
-3.02
-1.97
-0.48
1.24
2.92
4.36
5.50
6.37
7.03
7.51
7.81
7.93
7.93
7.96
8.19
8.70
9.46
10.28
10.91
11.15
10.96
10.49
9.96
9.55
9.32
9.18
8.98
8.56
7.88
7.01
6.06
5.17
4.39
3.74
3.19
2.70
2.19
1.62
0.91
0.04
-0.91
-1.84
-2.58
-3.04
-3.18
-3.05
-2.77
-2.44
-2.13
-1.89
-1.77
-1.83
-2.21
-3.02
-4.31
-5.98
-7.81
-9.48
-10.68
-11.27
-11.31
-10.99
-10.57
-10.24
-9.99
-9.64
-8.92
-7.61
-5.57
-2.85
0.42
3.97
7.51
10.77
13.50
15.55
16.82
17.32
17.12
16.39
15.35
14.27
13.37
12.75
12.38
12.08
11.62
10.81
9.63
8.17
6.63
5.16
3.84
2.67
1.57
0.49
-0.58
-1.62
-2.65
-3.67
-4.71
-5.79
-6.91
-8.02
-9.03
-9.83
-10.31
-10.38
-10.01
-9.24
-8.19
-7.00
-5.82
-4.74
-3.79
-2.93
-2.07
-1.14
-0.09
1.05
2.16
3.06
3.58
3.64
3.29
2.73
2.13
1.63
1.17
0.64
-0.08
-0.92
-1.69
-2.11
-2.00
-1.41
-0.62
-0.06
-0.11
-0.89
-2.23
-3.68
-4.73
-5.02
-4.55
-3.71
-3.14
-3.45
-4.92
-7.34
-10.09
-12.40
-13.75
-14.05
-13.65
-13.18
-13.16
-13.83
-15.08
-16.57
-17.83
-18.37
-17.58
-14.90
-9.98
-3.06
4.86
12.21
17.47
19.93
20.15
19.74
20.43
23.04
26.92
30.10
30.36
26.31
18.07
7.12
-4.52
-15.17
-24.00
-30.97
-36.37
-40.35
-42.82
-43.58
-42.74
-40.98
-39.42
-39.23
-41.00
-44.38
-48.02
-49.98
-48.47
-42.52
-32.48
-19.80
-6.50
5.68
15.76
23.80
30.50
36.81
43.46
50.82
59.02
68.04
77.61
87.21
95.92
102.54
105.94
105.45
101.06
93.46
83.64
72.59
61.03
49.36
37.78
26.41
15.45
5.18
-4.03
-11.74
-17.44
-20.61
-20.85
-18.10
-12.79
-5.80
1.71
8.77
14.86
20.03
24.71
29.28
33.61
36.82
37.50
34.11
25.59
11.84
-6.33
-27.31
-49.06
-69.31
-85.94
-97.24
-102.40
-101.78
-96.90
-89.90
-82.70
-76.26
-70.49
-64.73
-58.63
-52.78
-48.49
-47.05
-48.67
-52.29
-56.07
-58.44
-58.86
-57.87
-56.43
-54.98
-53.01
-49.16
-42.09
-31.20
-17.14
-1.51
13.94
28.09
40.98
53.58
67.19
82.43
98.62
113.71
124.98
130.09
128.00
119.41
106.37
91.41
76.61
63.01
50.52
38.53
26.45
14.02
1.22
-12.05
-26.09
-41.22
-57.38
-73.75
-88.47
-99.31
-104.73
-104.73
-100.89
-95.51
-90.44
-86.22
-82.34
-77.43
-70.38
-61.18
-50.97
-41.39
-33.68
-28.18
-24.44
-21.85
-19.49
-16.36
-11.67
-4.99
3.80
14.47
26.38
39.97
53.20
62.93
67.18
66.48
63.03
59.11
56.21
54.68
54.18
53.92
53.51
53.00
52.61
52.44
52.35
52.04
51.23
49.66
46.99
43.29
39.14
35.33
32.57
31.22
31.33
32.61
34.54
36.35
37.43
37.39
36.01
33.24
29.15
24.02
18.27
12.33
6.50
1.02
-3.88
-8.06
-11.49
-14.26
-16.53
-18.50
-20.39
-22.40
-24.63
-27.07
-29.58
-31.87
-33.61
-34.55
-34.58
-33.85
-32.63
-31.09
-29.16
-26.55
-22.98
-18.43
-13.32
-8.33
-4.14
-1.04
1.15
2.91
4.70
6.63
8.50
10.00
11.01
11.78
12.87
14.85
17.98
22.06
26.51
30.56
33.62
35.40
36.01
35.76
35.05
34.13
33.06
31.71
29.91
27.58
24.81
21.87
19.03
16.41
13.92
11.30
8.19
4.27
-0.65
-6.56
-13.23
-20.14
-26.59
-31.81
-35.32
-37.09
-37.66
-37.90
-38.65
-40.39
-43.05
-46.13
-49.00
-51.17
-52.42
-52.85
-52.73
-52.35
-51.95
-51.59
-51.09
-50.06
-48.07
-44.87
-40.69
-36.22
-32.49
-30.43
-30.40
-32.02
-34.17
-35.44
-34.51
-30.63
-23.79
-14.71
-4.64
4.88
12.42
16.98
18.24
16.58
12.95
8.46
4.06
0.35
-2.47
-4.36
-5.38
-5.59
-5.14
-4.32
-3.55
-3.19
-3.39
-3.99
-4.60
-4.77
-4.21
-2.93
-1.20
0.52
1.75
2.17
1.69
0.56
-0.64
-1.13
-0.20
2.55
7.08
12.91
19.22
25.00
29.41
31.95
32.63
31.84
30.19
28.33
26.69
25.45
24.35
23.13
21.71
20.30
19.23
18.72
18.72
18.88
18.74
17.52
14.89
11.16
7.10
3.41
0.37
-2.27
-5.00
-8.27
-12.94
-19.16
-26.20
-32.82
-38.12
-41.89
-44.38
-45.88
-46.51
-47.29
-48.70
-50.32
-51.09
-50.35
-48.15
-45.09
-41.90
-39.32
-39.48
-43.64
-51.37
-60.65
-69.59
-77.01
-82.69
-86.86
-80.49
-60.10
-29.96
0.54
24.04
37.87
43.12
42.41
38.66
34.33
29.46
23.90
16.68
9.74
4.59
1.76
0.83
1.18
2.29
2.85
2.34
1.47
1.91
4.70
10.82
19.53
29.55
39.46
47.39
52.25
54.13
54.26
53.88
53.82
54.20
54.75
55.02
54.22
52.00
48.65
45.09
42.09
40.00
38.64
37.57
36.24
34.04
30.55
25.75
20.01
13.85
7.81
2.25
-2.66
-6.92
-10.66
-14.08
-17.41
-20.93
-24.96
-29.68
-34.99
-40.43
-45.33
-49.17
-51.80
-53.35
-53.96
-53.63
-52.24
-49.87
-47.02
-44.48
-42.80
-41.72
-40.11
-36.51
-30.08
-21.30
-11.80
-3.49
2.43
6.09
8.66
11.52
15.45
20.38
25.70
30.81
35.42
39.41
42.55
44.37
44.42
42.62
39.62
36.49
34.31
33.54
33.84
34.36
34.26
33.18
31.34
29.29
27.41
25.67
23.65
20.82
16.87
11.93
6.58
1.60
-2.30
-4.70
-5.60
-5.43
-4.89
-4.67
-5.28
-6.80
-9.03
-11.59
-14.24
-16.97
-19.94
-23.23
-26.61
-29.45
-30.89
-30.28
-27.48
-23.03
-17.97
-13.37
-9.97
-7.96
-7.06
-6.77
-6.67
-6.53
-6.28
-5.91
-5.32
-4.41
-3.07
-1.31
0.75
2.85
4.68
5.87
6.16
5.39
3.67
1.39
-0.82
-2.31
-2.65
-1.85
-0.36
1.05
1.67
1.11
-0.53
-2.68
-4.51
-5.31
-4.64
-2.56
0.49
3.82
6.76
8.86
9.99
10.34
10.25
10.07
9.98
9.95
9.74
9.08
7.78
5.94
3.99
2.65
2.72
4.76
8.75
14.03
19.47
23.91
26.57
27.29
26.50
24.92
23.15
21.50
20.00
18.62
17.43
16.63
16.46
16.95
17.84
18.63
18.83
18.13
16.61
14.67
12.86
11.65
11.24
11.44
11.82
11.86
11.13
9.51
7.17
4.48
1.90
-0.22
-1.70
-2.59
-3.06
-3.31
-3.52
-3.78
-4.13
-4.59
-5.14
-5.78
-6.49
-7.24
-7.99
-8.69
-9.30
-9.81
-10.23
-10.57
-10.79
-10.84
-10.55
-9.73
-8.22
-5.98
-3.17
-0.13
2.71
4.97
6.39
6.94
6.77
6.17
5.44
4.86
4.59
4.67
5.02
5.46
5.85
6.09
6.15
6.07
5.94
5.83
5.83
5.97
6.26
6.57
6.69
6.28
5.09
3.03
0.32
-2.55
-4.98
-6.47
-6.72
-5.76
-3.79
-1.16
1.77
4.63
7.06
8.76
9.53
9.34
8.38
6.97
5.55
4.41
3.65
3.14
2.58
1.62
0.08
-1.99
-4.26
-6.29
-7.68
-8.18
-7.80
-6.76
-5.35
-3.93
-2.85
-2.42
-2.87
-4.26
-6.44
-8.96
-11.23
-12.68
-12.96
-12.04
-10.21
-7.88
-5.46
-3.17
-1.07
0.92
2.85
4.69
6.35
7.66
8.49
8.81
8.69
8.26
7.69
7.11
6.55
5.99
5.33
4.50
3.50
2.42
1.37
0.46
-0.28
-0.89
-1.47
-2.13
-2.95
-3.97
-5.21
-6.72
-8.48
-10.43
-12.38
-14.05
-15.14
-15.40
-14.76
-13.35
-11.42
-9.29
-7.23
-5.38
-3.81
-2.55
-1.60
-0.99
-0.76
-0.84
-1.10
-1.30
-1.17
-0.50
0.77
2.51
4.48
6.43
8.17
9.63
10.79
11.60
12.07
12.22
12.26
12.47
13.11
14.15
15.14
15.34
14.00
10.79
6.09
0.89
-3.58
-6.31
-6.99
-6.03
-4.28
-2.63
-1.57
-1.10
-0.87
-0.53
0.03
0.59
0.83
0.52
-0.23
-1.01
-1.31
-0.80
0.48
2.15
3.64
4.48
4.49
3.80
2.81
1.88
1.25
0.90
0.58
-0.01
-1.02
-2.37
-3.73
-4.72
-5.14
-5.09
-4.93
-5.04
-5.67
-6.70
-7.73
-8.17
-7.62
-6.00
-3.70
-1.35
0.40
1.16
0.89
-0.12
-1.27
-2.04
-2.12
-1.56
-0.52
0.78
2.27
3.98
5.98
8.68
12.34
16.87
21.98
27.31
32.70
38.07
43.38
48.44
53.66
59.18
64.63
69.27
72.41
73.79
73.56
72.02
69.42
67.01
65.65
65.41
65.69
65.77
65.34
64.41
62.96
60.79
59.15
59.05
60.83
64.19
68.63
74.08
80.93
89.83
91.61
81.14
58.69
29.39
-1.30
-30.69
-57.92
-81.92
-100.83
-112.98
-116.69
-112.82
-104.65
-96.09
-90.14
-87.53
-87.28
-87.92
-88.64
-88.27
-86.44
-83.44
-79.94
-76.44
-73.04
-69.77
-66.48
-63.66
-61.25
-59.20
-57.43
-55.79
-54.01
-51.61
-48.28
-44.13
-39.76
-35.53
-31.71
-28.38
-25.47
-22.83
-20.25
-17.53
-14.65
-11.69
-8.61
-5.35
-1.82
2.09
6.53
11.73
17.88
24.99
32.79
40.78
48.44
55.40
61.55
67.02
71.98
76.58
80.75
84.32
87.03
88.71
89.27
88.76
87.33
85.24
82.79
80.36
78.23
76.53
75.06
73.28
70.40
65.66
58.64
49.41
38.56
27.01
15.68
5.24
-4.05
-12.35
-20.12
-27.95
-36.31
-45.42
-55.12
-64.86
-73.88
-81.47
-87.13
-90.71
-92.32
-92.22
-90.64
-87.83
-84.04
-79.64
-75.07
-70.73
-66.99
-64.11
-62.28
-61.57
-61.89
-62.79
-63.64
-63.75
-62.78
-60.82
-58.34
-55.84
-53.68
-51.83
-49.91
-47.46
-44.19
-40.26
-36.15
-32.43
-29.59
-28.04
-27.87
-28.86
-30.44
-31.80
-32.25
-31.29
-28.70
-24.59
-19.60
-14.40
-9.29
-4.23
1.19
6.97
12.91
18.87
24.71
29.73
33.56
36.46
39.33
43.43
48.84
55.03
61.21
66.50
69.23
68.40
64.31
58.36
52.63
47.37
42.15
36.56
30.23
21.77
10.12
-4.76
-21.94
-39.40
-56.71
-73.40
-88.49
-92.40
-79.29
-51.36
-17.63
7.59
24.46
35.33
41.97
47.06
51.13
52.85
51.09
46.07
39.32
33.32
28.34
23.95
19.70
15.04
8.64
-0.57
-12.64
-26.41
-39.38
-50.10
-57.37
-60.26
-58.79
-54.34
-48.69
-43.11
-37.94
-32.50
-26.75
-20.82
-14.89
-9.29
-4.47
-0.63
2.44
5.24
8.40
11.86
15.35
18.70
21.91
25.14
28.63
32.62
37.11
41.78
45.85
48.48
49.02
47.33
43.79
39.23
34.63
30.78
28.09
26.54
25.80
25.45
25.12
24.58
23.64
22.06
19.67
16.44
12.62
8.75
5.49
3.35
2.50
2.65
3.20
3.49
3.06
1.84
0.11
-1.69
-3.09
-3.86
-4.03
-3.84
-3.64
-3.76
-4.39
-5.62
-7.40
-9.64
-12.20
-14.94
-17.69
-20.28
-22.59
-24.51
-25.98
-26.91
-27.20
-26.77
-25.64
-24.02
-22.30
-20.95
-20.31
-20.47
-21.22
-22.21
-23.12
-23.84
-24.49
-25.25
-26.21
-27.19
-27.79
-27.55
-26.23
-23.91
-21.07
-18.41
-16.63
-16.16
-16.93
-18.30
-19.23
-18.54
-15.28
-9.15
-0.55
9.46
19.45
28.06
34.41
38.26
40.02
40.45
40.32
40.14
40.02
39.79
39.16
37.92
36.00
33.54
30.80
28.15
26.04
24.95
25.23
26.92
29.59
32.31
33.92
33.35
30.00
23.95
15.82
6.56
-2.84
-11.62
-19.30
-25.58
-30.33
-33.49
-35.10
-35.35
-34.58
-33.25
-31.88
-31.02
-31.21
-32.98
-36.66
-42.28
-49.36
-56.91
-63.57
-68.00
-69.15
-66.54
-60.30
-51.14
-40.07
-28.21
-16.53
-5.60
4.45
13.95
23.39
33.14
43.23
53.30
62.83
71.33
78.59
84.65
89.59
93.32
95.48
95.56
93.12
88.11
80.94
72.34
63.06
53.60
44.09
34.43
24.53
14.54
4.81
-4.26
-12.46
-19.85
-26.61
-32.83
-38.31
-42.57
-45.08
-45.54
-44.02
-40.91
-36.69
-31.76
-26.31
-20.45
-14.31
-8.17
-2.42
2.59
6.69
9.92
12.50
14.67
16.63
18.47
20.07
21.14
21.24
19.95
17.01
12.47
6.75
0.53
-5.51
-10.92
-15.57
-19.59
-23.22
-26.57
-29.67
-32.43
-34.80
-36.85
-38.68
-40.42
-42.06
-43.52
-44.58
-45.05
-44.80
-43.83
-42.28
-40.40
-38.40
-36.41
-34.45
-32.44
-30.29
-27.95
-25.38
-22.51
-19.22
-15.35
-10.80
-5.64
-0.16
5.18
9.88
13.57
16.11
17.60
18.26
18.34
17.94
17.06
15.63
13.62
11.05
8.09
4.96
1.91
-0.86
-3.24
-5.23
-6.87
-8.18
-9.16
-9.73
-9.82
-9.37
-8.47
-7.31
-6.14
-5.19
-4.59
-4.32
-4.23
-4.08
-3.61
-2.61
-0.94
1.37
4.24
7.47
10.82
14.05
16.96
19.36
21.15
22.25
22.63
22.30
21.34
19.83
17.86
15.51
12.87
9.99
6.96
3.89
0.91
-1.87
-4.34
-6.49
-8.28
-9.66
-10.57
-10.88
-10.57
-9.67
-8.34
-6.73
-5.01
-3.26
-1.53
0.10
1.52
2.64
3.39
3.87
4.29
4.92
5.98
7.53
9.48
11.58
13.61
15.41
16.92
18.15
19.14
19.86
20.23
20.12
19.40
18.04
16.04
13.50
10.52
7.22
3.75
0.25
-3.10
-6.19
-8.93
-11.32
-13.38
-15.12
-16.50
-17.47
-17.96
-17.96
-17.51
-16.66
-15.49
-14.07
-12.51
-10.92
-9.45
-8.13
-6.87
-5.45
-3.59
-1.13
1.91
5.28
8.67
11.82
14.63
17.17
19.52
21.68
23.47
24.62
24.90
24.23
22.73
20.63
18.16
15.46
12.63
9.73
6.92
4.41
2.43
1.09
0.36
0.03
-0.18
-0.50
-1.04
-1.73
-2.38
-2.82
-2.93
-2.70
-2.24
-1.66
-1.06
-0.54
-0.20
-0.12
-0.36
-0.85
-1.35
-1.52
-1.04
0.28
2.35
4.92
7.62
10.20
12.52
14.58
16.40
17.97
19.21
20.05
20.44
20.39
19.90
18.96
17.51
15.52
13.03
10.20
7.24
4.40
1.81
-0.49
-2.50
-4.19
-5.47
-6.19
-6.28
-5.75
-4.82
-3.77
-2.89
-2.39
-2.33
-2.64
-3.20
-3.86
-4.50
-5.03
-5.39
-5.61
-5.80
-6.05
-6.43
-6.95
-7.54
-8.09
-8.51
-8.71
-8.62
-8.12
-7.16
-5.76
-4.08
-2.47
-1.32
-1.05
-1.99
-4.32
-8.03
-12.85
-18.19
-23.18
-26.78
-28.11
-26.83
-23.31
-18.57
-13.90
-10.35
-8.45
-8.07
-8.65
-9.57
-10.39
-10.88
-10.97
-10.61
-9.67
-8.04
-5.65
-2.57
0.97
4.64
8.08
11.03
13.36
15.10
16.38
17.34
18.11
18.64
18.83
18.55
17.80
16.72
15.54
14.48
13.67
13.04
12.46
11.77
10.87
9.80
8.66
7.59
6.65
5.83
5.04
4.16
3.14
1.98
0.75
-0.47
-1.66
-2.80
-3.91
-4.92
-5.69
-6.04
-5.80
-4.98
-3.69
-2.13
-0.49
1.10
2.62
4.03
5.28
6.27
6.90
7.14
7.05
6.76
6.38
5.99
5.60
5.16
4.62
3.97
3.23
2.45
1.71
1.08
0.60
0.26
-0.01
-0.34
-0.85
-1.57
-2.44
-3.31
-4.03
-4.53
-4.85
-5.16
-5.59
-6.19
-6.83
-7.27
-7.24
-6.55
-5.24
-3.48
-1.57
0.24
1.78
3.00
3.95
4.65
5.10
5.28
5.15
4.75
4.21
3.67
3.29
3.12
3.10
3.11
2.95
2.55
1.92
1.20
0.56
0.15
-0.05
-0.14
-0.31
-0.67
-1.22
-1.84
-2.40
-2.84
-3.20
-3.62
-4.21
-4.99
-5.85
-6.62
-7.12
-7.24
-6.95
-6.29
-5.32
-4.16
-2.91
-1.64
-0.41
0.78
1.90
2.90
3.70
4.23
4.47
4.48
4.36
4.22
4.13
4.06
3.93
3.67
3.25
2.74
2.24
1.86
1.66
1.65
1.76
1.89
1.92
1.79
1.45
0.94
0.30
-0.39
-1.08
-1.78
-2.48
-3.17
-3.84
-4.45
-4.97
-5.41
-5.77
-6.04
-6.18
-6.07
-5.55
-4.52
-3.02
-1.24
0.55
2.05
3.14
3.87
4.40
4.89
5.39
5.81
6.00
5.83
5.33
4.64
3.92
3.30
2.82
2.43
2.09
1.77
1.49
1.26
1.07
0.90
0.71
0.50
0.27
0.04
-0.21
-0.52
-0.92
-1.41
-1.95
-2.49
-2.99
-3.44
-3.84
-4.21
-4.56
-4.86
-5.06
-5.09
-4.91
-4.48
-3.79
-2.87
-1.80
-0.67
0.40
1.35
2.14
2.75
3.19
3.44
3.47
3.28
2.91
2.41
1.89
1.44
1.12
0.98
0.96
1.00
1.00
0.88
0.66
0.38
0.14
-0.02
-0.10
-0.15
-0.23
-0.39
-0.66
-1.00
-1.39
-1.80
-2.20
-2.55
-2.84
-3.10
-3.39
-3.75
-4.16
-4.55
-4.78
-4.77
-4.45
-3.86
-3.02
-1.97
-0.79
0.45
1.60
2.54
3.18
3.51
3.62
3.63
3.62
3.60
3.51
3.29
2.92
2.44
1.96
1.55
1.25
1.06
0.91
0.80
0.72
0.70
0.72
0.72
0.60
0.28
-0.25
-0.93
-1.61
-2.13
-2.41
-2.49
-2.47
-2.52
-2.79
-3.32
-4.08
-4.87
-5.43
-5.53
-5.06
-4.07
-2.79
-1.45
-0.26
0.73
1.57
2.34
3.06
3.67
4.05
4.18
4.06
3.84
3.61
3.44
3.27
3.06
2.72
2.30
1.85
1.46
1.19
1.04
0.96
0.90
0.80
0.65
0.47
0.30
0.17
0.05
-0.12
-0.44
-0.95
-1.64
-2.41
-3.12
-3.70
-4.15
-4.55
-4.98
-5.42
-5.73
-5.71
-5.22
-4.28
-3.04
-1.71
-0.42
0.76
1.87
2.94
3.91
4.67
5.08
5.08
4.73
4.23
3.81
3.61
3.62
3.72
3.71
3.43
2.88
2.18
1.51
1.04
0.82
0.76
0.70
0.52
0.14
-0.41
-1.03
-1.64
-2.16
-2.60
-2.97
-3.28
-3.54
-3.74
-3.89
-4.05
-4.25
-4.52
-4.85
-5.17
-5.36
-5.32
-4.99
-4.36
-3.49
-2.47
-1.41
-0.38
0.55
1.35
2.00
2.49
2.81
2.97
3.00
2.92
2.74
2.45
2.06
1.63
1.19
0.85
0.64
0.56
0.59
0.67
0.79
0.94
1.12
1.26
1.26
1.01
0.50
-0.15
-0.77
-1.18
-1.34
-1.33
-1.31
-1.43
-1.78
-2.36
-3.07
-3.81
-4.48
-4.95
-5.14
-4.96
-4.40
-3.53
-2.49
-1.38
-0.30
0.75
1.76
2.68
3.40
3.78
3.73
3.30
2.67
2.08
1.73
1.68
1.86
2.13
2.35
2.46
2.51
2.55
2.65
2.79
2.90
2.91
2.79
2.58
2.38
2.23
2.09
1.87
1.44
0.76
-0.09
-0.91
-1.53
-1.86
-1.97
-2.05
-2.31
-2.85
-3.65
-4.56
-5.37
-5.89
-5.99
-5.66
-4.99
-4.13
-3.23
-2.36
-1.52
-0.66
0.25
1.18
2.03
2.69
3.10
3.27
3.30
3.28
3.30
3.35
3.34
3.20
2.87
2.40
1.89
1.48
1.25
1.22
1.30
1.42
1.50
1.52
1.50
1.45
1.39
1.32
1.20
0.99
0.66
0.17
-0.46
-1.17
-1.84
-2.39
-2.75
-2.97
-3.10
-3.25
-3.42
-3.60
-3.77
-3.94
-4.16
-4.44
-4.71
-4.83
-4.61
-3.96
-2.91
-1.62
-0.31
0.85
1.77
2.51
3.12
3.64
4.05
4.29
4.30
4.09
3.71
3.30
2.94
2.68
2.49
2.29
2.02
1.72
1.45
1.31
1.34
1.52
1.77
2.01
2.19
2.30
2.32
2.24
1.98
1.53
0.88
0.12
-0.60
-1.14
-1.44
-1.52
-1.46
-1.37
-1.34
-1.43
-1.66
-2.00
-2.42
-2.87
-3.33
-3.79
-4.23
-4.62
-4.90
-4.97
-4.77
-4.29
-3.56
-2.68
-1.75
-0.87
-0.06
0.66
1.32
1.89
2.32
2.58
2.67
2.59
2.38
2.05
1.66
1.26
0.91
0.70
0.68
0.83
1.07
1.26
1.31
1.18
0.94
0.69
0.53
0.46
0.45
0.41
0.33
0.22
0.12
0.01
-0.14
-0.41
-0.82
-1.31
-1.77
-2.08
-2.23
-2.32
-2.53
-3.00
-3.74
-4.58
-5.28
-5.63
-5.50
-4.93
-4.04
-2.99
-1.89
-0.85
0.07
0.82
1.38
1.79
2.11
2.43
2.76
3.02
3.11
2.96
2.59
2.15
1.81
1.66
1.69
1.82
1.91
1.95
1.95
1.95
1.95
1.88
1.66
1.26
0.75
0.26
-0.09
-0.24
-0.28
-0.35
-0.57
-1.00
-1.58
-2.18
-2.68
-3.00
-3.16
-3.25
-3.35
-3.54
-3.86
-4.25
-4.64
-4.94
-5.04
-4.90
-4.47
-3.80
-2.92
-1.92
-0.85
0.22
1.21
2.01
2.52
2.69
2.54
2.23
1.93
1.80
1.90
2.13
2.34
2.39
2.21
1.88
1.55
1.33
1.24
1.26
1.32
1.38
1.46
1.54
1.64
1.68
1.61
1.41
1.10
0.75
0.38
-0.00
-0.45
-0.98
-1.62
-2.31
-3.00
-3.63
-4.19
-4.65
-5.03
-5.33
-5.55
-5.69
-5.75
-5.68
-5.46
-5.02
-4.34
-3.42
-2.32
-1.15
-0.01
1.00
1.82
2.43
2.87
3.16
3.33
3.38
3.31
3.07
2.65
2.09
1.48
0.95
0.66
0.68
1.01
1.53
2.05
2.39
2.45
2.24
1.89
1.54
1.29
1.13
0.96
0.71
0.31
-0.21
-0.80
-1.36
-1.83
-2.19
-2.41
-2.56
-2.69
-2.90
-3.25
-3.73
-4.26
-4.68
-4.86
-4.69
-4.19
-3.39
-2.40
-1.32
-0.24
0.76
1.59
2.21
2.60
2.79
2.86
2.90
2.95
3.02
3.09
3.09
3.02
2.87
2.68
2.48
2.29
2.11
1.94
1.79
1.71
1.69
1.75
1.81
1.81
1.70
1.45
1.12
0.74
0.36
-0.01
-0.38
-0.75
-1.16
-1.64
-2.26
-3.03
-3.92
-4.83
-5.60
-6.04
-6.05
-5.61
-4.79
-3.69
-2.46
-1.20
-0.03
0.97
1.74
2.26
2.58
2.78
3.00
3.30
3.74
4.25
4.74
5.08
5.18
5.04
4.72
4.39
4.19
4.19
4.36
4.56
4.63
4.52
4.29
4.09
4.03
4.17
4.45
4.73
4.90
4.89
4.76
4.54
4.33
4.19
4.20
4.43
4.89
5.54
6.33
7.15
7.88
8.33
8.31
7.71
6.52
4.84
2.81
0.72
-1.22
-3.05
-5.04
-7.56
-10.80
-14.65
-18.68
-22.38
-25.15
-26.64
-26.88
-26.28
-25.24
-23.96
-22.31
-19.99
-16.77
-12.32
-6.41
0.99
9.64
19.16
29.05
38.71
47.43
52.95
53.34
48.32
39.74
30.26
21.96
15.82
12.09
10.62
10.83
12.15
13.90
15.30
15.77
15.20
14.03
12.90
12.54
13.22
14.89
17.17
19.53
21.53
23.04
24.16
25.20
26.38
27.67
28.93
29.98
30.62
30.49
30.05
29.12
27.29
24.10
19.09
12.14
3.56
-5.96
-15.47
-23.97
-30.86
-35.75
-38.62
-39.69
-39.33
-37.86
-35.52
-32.49
-28.90
-25.14
-21.48
-17.99
-14.62
-11.35
-8.26
-5.65
-3.87
-3.10
-3.58
-5.03
-6.86
-8.52
-9.95
-11.62
-14.29
-18.63
-24.95
-33.68
-44.52
-56.43
-68.03
-78.06
-85.63
-90.09
-90.92
-87.87
-82.22
-75.56
-69.49
-65.48
-64.59
-67.11
-72.23
-78.30
-83.60
-88.10
-91.92
-94.62
-95.24
-92.75
-86.58
-76.85
-64.32
-43.20
-13.16
21.02
52.35
76.29
92.16
101.48
106.18
107.87
108.18
106.51
102.46
96.59
90.15
84.25
79.38
75.50
72.28
68.77
63.61
56.42
47.94
39.58
32.53
27.22
23.48
20.78
18.61
16.17
13.24
10.19
7.56
5.57
3.97
2.31
0.24
-2.35
-5.61
-9.40
-13.28
-16.71
-19.22
-20.45
-20.25
-18.61
-15.87
-12.66
-9.66
-7.44
-6.30
-6.25
-6.98
-7.98
-8.76
-9.13
-9.06
-8.40
-6.85
-4.05
0.23
5.91
12.53
19.29
24.97
28.76
30.62
31.17
31.14
30.89
30.40
29.43
27.77
24.95
21.07
16.90
13.41
10.92
8.81
5.95
1.42
-5.03
-13.68
-24.16
-35.50
-46.60
-56.69
-65.31
-71.92
-75.82
-72.12
-59.44
-41.52
-24.85
-13.75
-8.65
-7.46
-7.68
-7.63
-6.83
-6.51
-7.73
-10.45
-13.60
-16.03
-17.15
-17.03
-16.37
-15.42
-14.92
-15.12
-15.57
-15.37
-13.95
-11.36
-8.13
-4.78
-1.67
0.60
1.76
1.92
1.54
1.12
1.12
1.24
1.52
2.12
2.84
3.43
3.78
3.96
4.18
4.65
5.48
6.76
8.38
9.99
11.26
12.08
12.55
12.93
13.52
14.50
16.00
17.95
20.01
21.74
22.75
22.93
22.63
22.52
23.23
25.22
28.52
32.83
37.70
42.65
47.16
50.70
52.59
52.25
49.67
45.83
42.51
41.53
43.75
48.37
53.35
56.15
54.95
49.66
41.85
33.80
27.17
22.21
17.91
13.21
7.56
1.27
-4.68
-9.37
-12.62
-15.12
-18.11
-24.19
-33.77
-45.10
-55.34
-62.38
-65.73
-66.25
-65.46
-64.80
-65.06
-66.32
-67.56
-67.55
-65.32
-60.40
-52.98
-43.90
-34.45
-25.88
-18.73
-13.37
-9.74
-7.30
-5.25
-2.93
-0.07
3.30
7.04
11.27
16.19
21.86
27.91
33.57
37.85
39.95
39.58
37.10
33.34
29.19
25.28
21.79
18.61
15.45
12.10
8.54
4.94
1.66
-0.94
-2.50
-2.84
-1.94
-0.00
2.51
4.98
6.69
7.05
5.81
3.10
-0.54
-4.41
-7.92
-10.72
-12.80
-14.36
-15.63
-16.79
-18.00
-19.39
-21.10
-23.27
-25.82
-28.45
-30.66
-31.98
-32.16
-31.29
-29.72
-27.90
-26.16
-24.71
-23.68
-23.21
-23.48
-24.53
-26.22
-28.15
-29.80
-30.72
-30.66
-29.65
-27.86
-25.51
-22.77
-19.76
-16.50
-12.92
-8.83
-3.99
1.79
8.49
15.78
23.08
29.74
35.24
39.39
42.31
44.36
45.95
47.39
48.77
49.95
50.55
50.09
48.09
44.25
38.51
31.12
22.54
13.37
4.16
-4.59
-12.49
-19.26
-24.64
-28.46
-30.60
-31.07
-30.03
-27.79
-24.78
-21.50
-18.35
-15.58
-13.22
-11.06
-8.83
-6.30
-3.43
-0.41
2.45
4.83
6.53
7.58
8.18
8.59
9.12
9.96
11.26
13.04
15.27
17.79
20.36
22.66
24.42
25.49
25.86
25.71
25.22
24.56
23.78
22.88
21.80
20.56
19.24
17.97
16.84
15.88
15.02
14.18
13.32
12.46
11.67
11.03
10.52
10.08
9.56
8.84
7.81
6.42
4.75
2.87
0.96
-0.86
-2.47
-3.81
-4.83
-5.50
-5.77
-5.56
-4.85
-3.66
-2.13
-0.48
1.06
2.33
3.28
4.01
4.62
5.21
5.74
6.11
6.20
5.98
5.55
5.03
4.55
4.16
3.83
3.46
3.04
2.58
2.15
1.81
1.55
1.31
1.03
0.69
0.30
-0.11
-0.53
-0.96
-1.45
-2.02
-2.69
-3.46
-4.31
-5.22
-6.12
-6.93
-7.55
-7.94
-8.09
-8.00
-7.70
-7.13
-6.23
-4.95
-3.33
-1.52
0.23
1.65
2.58
3.03
3.11
3.02
2.91
2.85
2.78
2.60
2.27
1.79
1.25
0.80
0.54
0.52
0.69
0.94
1.12
1.10
0.83
0.32
-0.36
-1.09
-1.76
-2.30
-2.67
-2.88
-3.00
-3.12
-3.34
-3.72
-4.28
-4.97
-5.70
-6.34
-6.77
-6.91
-6.70
-6.17
-5.37
-4.35
-3.18
-1.93
-0.64
0.62
1.80
2.81
3.56
4.00
4.10
3.88
3.44
2.91
2.41
2.02
1.71
1.43
1.09
0.68
0.27
-0.01
-0.08
0.05
0.24
0.30
0.11
-0.35
-0.93
-1.45
-1.81
-2.04
-2.27
-2.64
-3.24
-3.99
-4.76
-5.44
-5.95
-6.26
-6.37
-6.27
-5.92
-5.29
-4.38
-3.21
-1.86
-0.45
0.89
2.02
2.85
3.37
3.66
3.84
4.01
4.17
4.24
4.11
3.73
3.17
2.54
1.98
1.55
1.22
0.95
0.72
0.52
0.35
0.17
-0.07
-0.43
-0.93
-1.50
-2.08
-2.60
-3.02
-3.37
-3.70
-4.07
-4.57
-5.26
-6.14
-7.17
-8.19
-9.01
-9.41
-9.26
-8.51
-7.23
-5.59
-3.78
-2.04
-0.60
0.39
0.90
1.01
0.92
0.82
0.82
0.90
0.95
0.85
0.57
0.15
-0.26
-0.57
-0.72
-0.71
-0.57
-0.30
0.17
0.90
1.85
2.93
3.95
4.78
5.34
5.72
6.02
6.36
6.70
6.89
6.75
6.09
4.86
3.16
1.21
-0.73
-2.38
-3.52
-4.06
-4.02
-3.57
-2.88
-2.14
-1.45
-0.85
-0.32
0.13
0.45
0.58
0.52
0.33
0.13
-0.01
-0.07
-0.12
-0.26
-0.54
-0.90
-1.24
-1.44
-1.46
-1.35
-1.22
-1.14
-1.21
-1.43
-1.79
-2.22
-2.67
-3.04
-3.28
-3.38
-3.37
-3.39
-3.55
-3.95
-4.61
-5.46
-6.36
-7.14
-7.60
-7.62
-7.12
-6.12
-4.74
-3.19
-1.64
-0.23
1.00
2.06
2.98
3.78
4.43
4.90
5.13
5.10
4.79
4.25
3.57
2.85
2.26
1.87
1.68
1.63
1.59
1.52
1.44
1.44
1.59
1.84
2.05
2.03
1.68
1.00
0.12
-0.77
-1.58
-2.26
-2.83
-3.31
-3.72
-4.06
-4.37
-4.75
-5.29
-6.01
-6.78
-7.34
-7.39
-6.74
-5.43
-3.69
-1.86
-0.22
1.09
2.12
3.05
3.98
4.92
5.75
6.31
6.49
6.32
5.94
5.51
5.14
4.84
4.52
4.13
3.71
3.33
3.12
3.13
3.29
3.47
3.52
3.41
3.16
2.84
2.48
2.05
1.51
0.83
0.07
-0.65
-1.24
-1.66
-2.01
-2.39
-2.94
-3.68
-4.58
-5.53
-6.44
-7.23
-7.85
-8.23
-8.31
-7.99
-7.23
-6.08
-4.63
-3.07
-1.52
-0.11
1.10
2.08
2.78
3.16
3.24
3.08
2.83
2.62
2.54
2.56
2.57
2.43
2.08
1.61
1.14
0.86
0.84
1.08
1.48
1.90
2.23
2.40
2.39
2.19
1.83
1.34
0.78
0.20
-0.31
-0.70
-0.96
-1.17
-1.38
-1.70
-2.18
-2.83
-3.61
-4.44
-5.24
-5.90
-6.31
-6.36
-5.97
-5.11
-3.85
-2.31
-0.67
0.92
2.31
3.42
4.21
4.66
4.82
4.77
4.64
4.55
4.55
4.59
4.57
4.37
3.94
3.36
2.78
2.36
2.19
2.24
2.39
2.53
2.57
2.51
2.36
2.11
1.71
1.13
0.38
-0.44
-1.17
-1.67
-1.90
-1.95
-1.94
-2.04
-2.33
-2.83
-3.50
-4.29
-5.12
-5.88
-6.42
-6.59
-6.27
-5.45
-4.24
-2.84
-1.44
-0.18
0.88
1.78
2.56
3.24
3.83
4.27
4.52
4.57
4.45
4.24
4.00
3.80
3.69
3.65
3.65
3.65
3.64
3.62
3.63
3.67
3.71
3.68
3.53
3.24
2.85
2.46
2.13
1.86
1.60
1.26
0.83
0.32
-0.18
-0.63
-1.02
-1.43
-1.94
-2.59
-3.36
-4.15
-4.86
-5.39
-5.67
-5.66
-5.32
-4.66
-3.73
-2.61
-1.42
-0.24
0.84
1.78
2.54
3.10
3.45
3.62
3.67
3.69
3.74
3.85
3.99
4.11
4.16
4.12
4.03
3.94
3.87
3.82
3.78
3.70
3.55
3.30
2.97
2.58
2.18
1.81
1.50
1.26
1.04
0.79
0.45
-0.02
-0.54
-1.05
-1.47
-1.80
-2.13
-2.53
-3.00
-3.48
-3.83
-3.98
-3.99
-4.06
-4.36
-4.94
-5.64
-6.18
-6.25
-5.75
-4.78
-3.60
-2.46
-1.51
-0.74
-0.08
0.53
1.10
1.58
1.92
2.07
2.06
1.98
1.91
1.93
2.05
2.21
2.31
2.26
2.02
1.67
1.33
1.14
1.19
1.43
1.71
1.87
1.80
1.50
1.06
0.60
0.21
-0.05
-0.17
-0.21
-0.21
-0.27
-0.44
-0.77
-1.24
-1.79
-2.32
-2.76
-3.07
-3.26
-3.34
-3.35
-3.34
-3.38
-3.58
-4.00
-4.63
-5.34
-5.89
-6.04
-5.64
-4.67
-3.28
-1.70
-0.15
1.20
2.29
3.09
3.61
3.85
3.85
3.64
3.30
2.92
2.59
2.36
2.22
2.12
2.02
1.91
1.85
1.92
2.22
2.71
3.26
3.67
3.73
3.37
2.67
1.85
1.12
0.63
0.38
0.24
0.11
-0.12
-0.42
-0.79
-1.21
-1.71
-2.28
-2.90
-3.46
-3.81
-3.88
-3.69
-3.38
-3.16
-3.21
-3.62
-4.32
-5.12
-5.74
-5.94
-5.61
-4.78
-3.63
-2.43
-1.36
-0.52
0.15
0.73
1.32
1.92
2.48
2.93
3.23
3.41
3.50
3.51
3.41
3.16
2.76
2.26
1.75
1.36
1.16
1.16
1.32
1.57
1.84
2.05
2.16
2.13
1.97
1.72
1.46
1.27
1.17
1.15
1.13
1.02
0.78
0.46
0.17
-0.00
-0.01
0.10
0.24
0.30
0.28
0.21
0.15
0.14
0.15
0.12
-0.01
-0.22
-0.46
-0.67
-0.84
-1.05
-1.44
-2.13
-3.11
-4.18
-5.08
-5.56
-5.54
-5.13
-4.62
-4.30
-4.32
-4.63
-4.98
-5.04
-4.50
-3.18
-1.07
1.66
4.85
8.32
12.07
16.12
20.55
25.29
30.14
34.76
38.83
42.10
44.42
45.68
45.68
44.10
40.65
35.22
28.05
19.70
10.90
2.26
-5.79
-13.09
-19.60
-25.31
-30.20
-34.24
-37.50
-40.08
-42.10
-43.56
-44.32
-44.13
-42.83
-40.42
-37.12
-33.34
-29.45
-25.71
-22.20
-18.88
-15.74
-12.84
-10.32
-8.26
-6.60
-5.13
-3.62
-1.93
-0.13
1.53
2.82
3.61
3.99
4.20
4.51
5.06
5.81
6.57
7.11
7.31
7.18
6.89
6.63
6.55
6.66
6.85
6.92
6.73
6.21
5.44
4.56
3.72
3.01
2.45
2.00
1.58
1.12
0.56
-0.15
-0.99
-1.91
-2.81
-3.54
-3.99
-4.05
-3.71
-3.03
-2.10
-1.11
-0.22
0.45
0.83
0.95
0.85
0.61
0.29
-0.02
-0.25
-0.34
-0.26
-0.06
0.16
0.29
0.26
0.14
0.02
0.03
0.19
0.43
0.62
0.64
0.48
0.21
-0.07
-0.32
-0.52
-0.74
-1.04
-1.45
-1.96
-2.52
-3.09
-3.65
-4.18
-4.71
-5.26
-5.80
-6.27
-6.61
-6.77
-6.73
-6.53
-6.20
-5.76
-5.17
-4.38
-3.36
-2.16
-0.89
0.26
1.14
1.68
1.93
2.01
2.07
2.17
2.28
2.32
2.22
1.97
1.65
1.39
1.27
1.33
1.51
1.69
1.83
1.86
1.82
1.72
1.55
1.31
0.98
0.53
-0.02
-0.65
-1.29
-1.92
-2.49
-3.02
-3.50
-3.97
-4.42
-4.84
-5.20
-5.46
-5.54
-5.34
-4.78
-3.82
-2.48
-0.91
0.68
2.05
3.02
3.55
3.69
3.62
3.50
3.44
3.50
3.65
3.82
3.94
3.94
3.83
3.65
3.45
3.28
3.17
3.10
3.07
3.05
3.00
2.89
2.66
2.27
1.71
1.05
0.38
-0.19
-0.63
-0.97
-1.29
-1.68
-2.15
-2.71
-3.30
-3.88
-4.42
-4.88
-5.20
-5.29
-5.06
-4.47
-3.55
-2.41
-1.19
-0.02
1.01
1.89
2.65
3.30
3.88
4.34
4.62
4.65
4.40
3.97
3.51
3.22
3.20
3.43
3.76
4.04
4.12
3.99
3.74
3.47
3.25
3.10
2.95
2.72
2.35
1.82
1.17
0.45
-0.26
-0.92
-1.52
-2.10
-2.71
-3.38
-4.11
-4.83
-5.43
-5.81
-5.92
-5.73
-5.28
-4.64
-3.87
-3.01
-2.07
-1.04
0.06
1.21
2.29
3.18
3.76
3.97
3.84
3.49
3.08
2.72
2.49
2.37
2.30
2.26
2.22
2.19
2.21
2.26
2.33
2.35
2.30
2.14
1.90
1.61
1.29
0.97
0.67
0.39
0.12
-0.17
-0.55
-1.07
-1.77
-2.61
-3.48
-4.22
-4.67
-4.72
-4.34
-3.58
-2.54
-1.32
-0.04
1.20
2.31
3.23
3.94
4.46
4.80
4.94
4.91
4.73
4.44
4.14
3.89
3.70
3.54
3.35
3.13
2.88
2.65
2.48
2.34
2.19
1.98
1.72
1.45
1.21
1.01
0.82
0.61
0.35
-0.00
-0.46
-1.07
-1.82
-2.69
-3.57
-4.33
-4.85
-5.10
-5.15
-5.05
-4.82
-4.42
-3.76
-2.80
-1.58
-0.25
1.01
2.05
2.77
3.16
3.26
3.14
2.92
2.72
2.64
2.71
2.88
3.04
3.11
3.05
2.91
2.74
2.57
2.37
2.12
1.82
1.56
1.45
1.57
1.86
2.12
2.11
1.68
0.83
-0.24
-1.27
-2.05
-2.50
-2.70
-2.78
-2.86
-3.02
-3.28
-3.67
-4.16
-4.72
-5.28
-5.68
-5.75
-5.35
-4.48
-3.26
-1.86
-0.52
0.62
1.47
2.05
2.43
2.71
2.98
3.27
3.53
3.71
3.74
3.59
3.35
3.12
2.99
3.00
3.12
3.25
3.30
3.21
2.97
2.62
2.20
1.77
1.36
1.01
0.72
0.49
0.31
0.16
0.01
-0.19
-0.43
-0.72
-1.00
-1.25
-1.45
-1.66
-1.97
-2.42
-3.02
-3.68
-4.28
-4.77
-5.14
-5.48
-5.80
-6.04
-6.02
-5.58
-4.69
-3.45
-2.11
-0.91
0.01
0.68
1.21
1.70
2.21
2.70
3.11
3.38
3.48
3.41
3.18
2.83
2.45
2.11
1.92
1.91
2.08
2.33
2.54
2.64
2.61
2.49
2.37
2.30
2.29
2.30
2.26
2.10
1.80
1.38
0.88
0.37
-0.09
-0.46
-0.70
-0.80
-0.80
-0.77
-0.77
-0.87
-1.10
-1.45
-1.90
-2.43
-3.02
-3.64
-4.22
-4.73
-5.12
-5.39
-5.54
-5.59
-5.54
-5.35
-4.95
-4.29
-3.35
-2.20
-0.95
0.26
1.29
2.03
2.43
2.53
2.46
2.35
2.31
2.36
2.45
2.48
2.42
2.30
2.18
2.08
2.01
1.91
1.73
1.47
1.21
1.06
1.06
1.20
1.39
1.50
1.44
1.19
0.79
0.33
-0.10
-0.42
-0.63
-0.76
-0.90
-1.11
-1.42
-1.79
-2.13
-2.35
-2.42
-2.41
-2.43
-2.58
-2.96
-3.56
-4.30
-5.00
-5.49
-5.61
-5.33
-4.69
-3.79
-2.74
-1.61
-0.44
0.70
1.72
2.46
2.79
2.70
2.29
1.80
1.46
1.41
1.65
2.05
2.43
2.66
2.71
2.63
2.49
2.34
2.21
2.08
1.95
1.79
1.62
1.42
1.19
0.95
0.73
0.58
0.48
0.41
0.27
0.00
-0.43
-0.93
-1.41
-1.77
-1.99
-2.14
-2.28
-2.43
-2.57
-2.70
-2.86
-3.17
-3.72
-4.50
-5.36
-6.02
-6.24
-5.88
-5.01
-3.82
-2.56
-1.41
-0.46
0.28
0.86
1.32
1.71
2.04
2.33
2.55
2.68
2.67
2.54
2.34
2.16
2.04
1.98
1.93
1.86
1.79
1.77
1.89
2.16
2.49
2.73
2.76
2.52
2.11
1.67
1.37
1.26
1.27
1.24
0.98
0.39
-0.49
-1.48
-2.38
-2.99
-3.28
-3.33
-3.31
-3.39
-3.65
-4.10
-4.66
-5.23
-5.71
-6.02
-6.09
-5.88
-5.38
-4.63
-3.70
-2.67
-1.64
-0.63
0.33
1.24
2.08
2.79
3.30
3.56
3.54
3.29
2.88
2.44
2.07
1.86
1.81
1.89
2.02
2.16
2.25
2.28
2.26
2.21
2.09
1.90
1.62
1.27
0.94
0.70
0.59
0.59
0.60
0.50
0.22
-0.25
-0.85
-1.45
-1.97
-2.37
-2.66
-2.91
-3.16
-3.48
-3.89
-4.39
-4.89
-5.29
-5.47
-5.35
-4.91
-4.22
-3.35
-2.39
-1.39
-0.39
0.54
1.32
1.90
2.24
2.39
2.41
2.42
2.43
2.45
2.43
2.34
2.21
2.07
1.97
1.92
1.89
1.86
1.80
1.74
1.71
1.73
1.78
1.82
1.78
1.58
1.22
0.72
0.17
-0.36
-0.79
-1.14
-1.48
-1.88
-2.42
-3.10
-3.85
-4.59
-5.24
-5.76
-6.15
-6.38
-6.41
-6.17
-5.61
-4.73
-3.59
-2.29
-0.94
0.38
1.62
2.73
3.61
4.17
4.38
4.24
3.88
3.46
3.12
2.94
2.89
2.93
3.00
3.07
3.16
3.26
3.32
3.29
3.12
2.80
2.43
2.10
1.91
1.88
1.92
1.85
1.53
0.90
0.05
-0.83
-1.51
-1.86
-1.95
-1.97
-2.17
-2.72
-3.60
-4.69
-5.79
-6.71
-7.36
-7.70
-7.72
-7.39
-6.67
-5.54
-4.07
-2.39
-0.70
0.85
2.15
3.15
3.88
4.37
4.67
4.82
4.88
4.84
4.73
4.53
4.24
3.89
3.53
3.26
3.15
3.23
3.45
3.68
3.81
3.71
3.38
2.85
2.25
1.70
1.28
1.01
0.87
0.80
0.76
0.68
0.52
0.25
-0.16
-0.74
-1.46
-2.28
-3.11
-3.87
-4.53
-5.10
-5.62
-6.10
-6.54
-6.89
-7.04
-6.94
-6.50
-5.71
-4.61
-3.30
-1.94
-0.65
0.46
1.38
2.16
2.87
3.51
4.06
4.44
4.62
4.61
4.53
4.47
4.48
4.51
4.47
4.28
3.97
3.63
3.38
3.28
3.34
3.46
3.54
3.52
3.36
3.06
2.67
2.22
1.73
1.23
0.75
0.29
-0.14
-0.61
-1.15
-1.80
-2.52
-3.25
-3.86
-4.26
-4.44
-4.48
-4.52
-4.69
-5.04
-5.47
-5.77
-5.75
-5.29
-4.39
-3.18
-1.81
-0.43
0.90
2.11
3.12
3.84
4.24
4.34
4.28
4.21
4.27
4.44
4.64
4.73
4.63
4.38
4.13
4.05
4.23
4.62
5.04
5.29
5.21
4.80
4.13
3.37
2.66
2.07
1.59
1.17
0.76
0.32
-0.16
-0.67
-1.17
-1.64
-2.02
-2.29
-2.47
-2.65
-2.94
-3.44
-4.12
-4.89
-5.55
-5.95
-6.05
-5.88
-5.54
-5.08
-4.50
-3.74
-2.79
-1.69
-0.54
0.56
1.59
2.54
3.44
4.26
4.89
5.23
5.22
4.91
4.46
4.04
3.77
3.68
3.74
3.86
3.99
4.09
4.12
4.08
3.98
3.85
3.73
3.62
3.48
3.25
2.92
2.53
2.14
1.83
1.56
1.26
0.82
0.23
-0.44
-1.06
-1.53
-1.87
-2.17
-2.55
-3.05
-3.60
-4.10
-4.48
-4.80
-5.16
-5.64
-6.21
-6.76
-7.08
-7.06
-6.67
-5.99
-5.11
-4.11
-3.02
-1.84
-0.59
0.67
1.85
2.86
3.58
3.97
4.02
3.81
3.50
3.27
3.24
3.43
3.74
3.98
4.04
3.91
3.68
3.50
3.47
3.53
3.58
3.47
3.19
2.80
2.42
2.15
1.96
1.77
1.52
1.20
0.90
0.69
0.59
0.49
0.24
-0.25
-0.93
-1.62
-2.15
-2.40
-2.47
-2.53
-2.74
-3.13
-3.61
-4.02
-4.29
-4.48
-4.72
-5.12
-5.66
-6.19
-6.45
-6.26
-5.57
-4.47
-3.15
-1.82
-0.65
0.28
0.94
1.38
1.69
1.96
2.28
2.64
3.00
3.25
3.28
3.07
2.65
2.16
1.76
1.60
1.72
2.08
2.55
2.94
3.13
3.07
2.83
2.52
2.26
2.09
1.99
1.87
1.72
1.53
1.30
1.07
0.78
0.37
-0.17
-0.82
-1.47
-1.99
-2.36
-2.58
-2.74
-2.93
-3.18
-3.47
-3.73
-3.93
-4.10
-4.35
-4.80
-5.47
-6.26
-6.90
-7.14
-6.79
-5.82
-4.42
-2.86
-1.39
-0.15
0.82
1.57
2.16
2.60
2.91
3.12
3.26
3.40
3.53
3.60
3.57
3.40
3.13
2.89
2.76
2.79
2.92
3.07
3.16
3.17
3.15
3.14
3.13
3.07
2.88
2.53
2.09
1.64
1.32
1.17
1.12
1.06
0.85
0.44
-0.12
-0.70
-1.17
-1.49
-1.71
-1.91
-2.19
-2.55
-2.93
-3.25
-3.46
-3.64
-3.91
-4.37
-5.03
-5.78
-6.46
-6.87
-6.89
-6.54
-5.89
-5.07
-4.15
-3.16
-2.11
-0.99
0.14
1.17
1.94
2.38
2.49
2.39
2.22
2.10
2.08
2.13
2.21
2.29
2.39
2.52
2.65
2.76
2.82
2.85
2.90
3.01
3.14
3.23
3.19
3.00
2.73
2.48
2.33
2.27
2.23
2.10
1.84
1.46
1.05
0.66
0.26
-0.19
-0.72
-1.32
-1.88
-2.27
-2.43
-2.37
-2.26
-2.24
-2.44
-2.89
-3.55
-4.30
-5.08
-5.79
-6.34
-6.62
-6.55
-6.08
-5.29
-4.36
-3.44
-2.62
-1.86
-1.07
-0.15
0.86
1.87
2.74
3.42
3.94
4.39
4.87
5.39
5.91
6.34
6.62
6.76
6.81
6.81
6.82
6.85
6.87
6.85
6.80
6.73
6.74
6.88
7.17
7.52
7.76
7.75
7.43
6.84
6.12
5.33
4.47
3.40
1.95
0.08
-2.10
-4.34
-6.35
-7.93
-8.99
-9.60
-9.90
-10.06
-10.25
-10.63
-11.37
-12.54
-14.09
-15.89
-17.72
-19.37
-20.69
-21.55
-21.87
-21.56
-20.57
-18.91
-16.70
-14.12
-11.38
-8.62
-5.89
-3.26
-0.79
1.45
3.34
4.86
6.01
6.85
7.44
7.79
7.92
7.85
7.66
7.45
7.34
7.38
7.51
7.63
7.61
7.37
6.90
6.25
5.47
4.60
3.60
2.46
1.16
-0.25
-1.66
-2.90
-3.83
-4.34
-4.39
-3.98
-3.19
-2.12
-0.94
0.12
0.86
1.20
1.27
1.32
1.68
2.53
3.85
5.38
6.79
7.77
8.22
8.20
7.87
7.40
6.91
6.49
6.24
6.20
6.37
6.67
6.94
7.06
6.95
6.66
6.29
5.95
5.69
5.52
5.42
5.35
5.27
5.13
4.87
4.49
4.00
3.46
2.94
2.48
2.07
1.68
1.28
0.83
0.33
-0.22
-0.81
-1.43
-2.07
-2.68
-3.26
-3.80
-4.33
-4.90
-5.51
-6.17
-6.84
-7.43
-7.86
-8.06
-7.98
-7.64
-7.05
-6.26
-5.29
-4.20
-3.05
-1.89
-0.77
0.26
1.17
1.93
2.50
2.84
2.96
2.90
2.77
2.63
2.53
2.44
2.30
2.09
1.84
1.64
1.59
1.70
1.93
2.18
2.35
2.38
2.30
2.14
1.97
1.80
1.63
1.43
1.18
0.87
0.49
0.01
-0.55
-1.21
-1.92
-2.61
-3.21
-3.65
-3.95
-4.17
-4.45
-4.90
-5.58
-6.46
-7.39
-8.14
-8.53
-8.38
-7.65
-6.40
-4.81
-3.13
-1.57
-0.30
0.63
1.26
1.70
2.04
2.34
2.61
2.85
3.04
3.21
3.37
3.54
3.71
3.87
4.00
4.07
4.06
3.94
3.68
3.29
2.82
2.39
2.12
2.06
2.13
2.18
2.07
1.75
1.28
0.84
0.55
0.45
0.44
0.35
0.03
-0.56
-1.32
-2.11
-2.79
-3.33
-3.73
-4.11
-4.55
-5.09
-5.69
-6.29
-6.77
-6.99
-6.87
-6.33
-5.40
-4.15
-2.74
-1.36
-0.12
0.90
1.72
2.36
2.85
3.16
3.30
3.29
3.18
3.08
3.05
3.08
3.11
3.06
2.89
2.67
2.51
2.49
2.67
2.99
3.33
3.56
3.62
3.49
3.26
2.98
2.68
2.31
1.81
1.14
0.34
-0.45
-1.12
-1.56
-1.79
-1.94
-2.14
-2.48
-2.99
-3.58
-4.16
-4.66
-5.09
-5.53
-6.06
-6.67
-7.30
-7.78
-7.93
-7.66
-6.95
-5.90
-4.62
-3.25
-1.86
-0.51
0.77
1.91
2.86
3.55
3.99
4.19
4.23
4.15
4.01
3.87
3.82
3.92
4.18
4.54
4.87
5.06
5.04
4.85
4.62
4.47
4.43
4.48
4.50
4.41
4.15
3.77
3.33
2.88
2.38
1.76
0.96
0.03
-0.90
-1.64
-2.06
-2.17
-2.13
-2.15
-2.41
-2.94
-3.69
-4.52
-5.32
-6.04
-6.62
-7.02
-7.09
-6.71
-5.83
-4.51
-2.96
-1.41
-0.09
0.92
1.65
2.17
2.59
2.93
3.17
3.25
3.17
2.96
2.67
2.39
2.20
2.10
2.07
2.08
2.12
2.18
2.30
2.43
2.50
2.43
2.18
1.79
1.34
0.95
0.67
0.51
0.37
0.17
-0.16
-0.60
-1.11
-1.64
-2.16
-2.67
-3.19
-3.69
-4.15
-4.57
-4.93
-5.27
-5.58
-5.86
-6.01
-5.94
-5.53
-4.72
-3.57
-2.23
-0.89
0.29
1.21
1.87
2.35
2.72
2.99
3.13
3.08
2.85
2.52
2.21
2.06
2.09
2.25
2.41
2.46
2.37
2.18
1.99
1.88
1.91
2.02
2.14
2.14
1.93
1.48
0.86
0.20
-0.36
-0.73
-0.95
-1.17
-1.51
-2.05
-2.75
-3.51
-4.22
-4.84
-5.42
-6.01
-6.62
-7.14
-7.44
-7.41
-7.05
-6.42
-5.62
-4.70
-3.65
-2.43
-1.01
0.49
1.91
3.04
3.75
4.05
4.07
3.99
3.96
4.03
4.17
4.32
4.41
4.40
4.34
4.23
4.11
3.97
3.76
3.51
3.24
3.02
2.93
2.96
3.05
3.05
2.83
2.28
1.42
0.37
-0.69
-1.59
-2.22
-2.58
-2.75
-2.85
-2.96
-3.14
-3.43
-3.83
-4.39
-5.13
-6.05
-7.07
-7.98
-8.51
-8.44
-7.66
-6.23
-4.40
-2.46
-0.69
0.79
1.95
2.88
3.64
4.25
4.70
4.94
4.95
4.76
4.47
4.16
3.92
3.77
3.68
3.62
3.57
3.54
3.59
3.75
4.04
4.41
4.77
5.01
5.01
4.73
4.17
3.42
2.61
1.88
1.31
0.91
0.65
0.45
0.27
0.06
-0.16
-0.42
-0.74
-1.17
-1.72
-2.36
-3.02
-3.65
-4.22
-4.79
-5.46
-6.26
-7.11
-7.83
-8.24
-8.18
-7.63
-6.64
-5.28
-3.66
-1.86
-0.05
1.60
2.88
3.68
4.04
4.08
4.02
3.97
3.96
3.96
3.90
3.75
3.54
3.33
3.17
3.06
2.98
2.91
2.84
2.82
2.87
3.01
3.20
3.37
3.45
3.36
3.09
2.65
2.09
1.44
0.77
0.14
-0.42
-0.87
-1.23
-1.55
-1.92
-2.41
-3.02
-3.68
-4.29
-4.75
-5.07
-5.32
-5.61
-5.98
-6.41
-6.74
-6.84
-6.55
-5.84
-4.79
-3.52
-2.18
-0.89
0.29
1.33
2.23
2.97
3.54
3.95
4.24
4.44
4.59
4.67
4.68
4.60
4.47
4.32
4.21
4.11
3.97
3.74
3.40
3.02
2.71
2.53
2.51
2.57
2.62
2.57
2.41
2.15
1.80
1.39
0.89
0.30
-0.36
-1.01
-1.57
-1.98
-2.24
-2.40
-2.57
-2.85
-3.31
-3.95
-4.71
-5.54
-6.35
-7.06
-7.62
-7.95
-7.99
-7.68
-6.99
-5.92
-4.53
-2.92
-1.21
0.48
2.00
3.27
4.22
4.84
5.13
5.13
4.90
4.50
4.01
3.54
3.17
2.99
2.98
3.13
3.34
3.55
3.74
3.90
4.00
4.05
4.00
3.85
3.60
3.30
2.95
2.60
2.24
1.90
1.60
1.32
1.04
0.70
0.23
-0.40
-1.10
-1.80
-2.40
-2.90
-3.35
-3.86
-4.48
-5.19
-5.92
-6.57
-7.10
-7.50
-7.72
-7.71
-7.37
-6.66
-5.59
-4.26
-2.80
-1.34
0.03
1.25
2.29
3.13
3.78
4.27
4.62
4.85
4.97
4.99
4.94
4.83
4.67
4.46
4.19
3.89
3.61
3.44
3.41
3.53
3.72
3.88
3.91
3.77
3.46
3.07
2.64
2.23
1.84
1.48
1.10
0.67
0.18
-0.36
-0.89
-1.35
-1.73
-2.08
-2.48
-2.98
-3.54
-4.09
-4.56
-4.94
-5.27
-5.65
-6.12
-6.63
-7.04
-7.18
-6.96
-6.37
-5.48
-4.40
-3.20
-1.92
-0.58
0.78
2.07
3.16
3.93
4.33
4.37
4.17
3.85
3.50
3.19
2.91
2.64
2.36
2.11
1.95
1.94
2.08
2.33
2.61
2.81
2.87
2.77
2.55
2.25
1.93
1.61
1.29
0.94
0.51
-0.02
-0.65
-1.37
-2.14
-2.91
-3.60
-4.18
-4.60
-4.92
-5.24
-5.64
-6.17
-6.78
-7.35
-7.72
-7.77
-7.44
-6.70
-5.60
-4.18
-2.53
-0.77
0.93
2.39
3.47
4.13
4.41
4.42
4.31
4.19
4.11
4.07
4.04
3.96
3.84
3.68
3.53
3.44
3.40
3.40
3.43
3.45
3.44
3.39
3.26
3.02
2.67
2.25
1.80
1.42
1.11
0.82
0.47
-0.02
-0.66
-1.40
-2.18
-2.92
-3.59
-4.23
-4.86
-5.54
-6.27
-7.00
-7.64
-8.07
-8.22
-8.04
-7.55
-6.78
-5.74
-4.43
-2.88
-1.18
0.49
1.91
2.93
3.51
3.75
3.86
3.99
4.20
4.46
4.67
4.79
4.82
4.82
4.84
4.90
4.96
4.98
4.91
4.78
4.59
4.36
4.13
3.90
3.68
3.45
3.22
2.93
2.54
2.01
1.37
0.64
-0.12
-0.87
-1.57
-2.20
-2.74
-3.18
-3.54
-3.89
-4.31
-4.88
-5.60
-6.41
-7.17
-7.70
-7.87
-7.62
-6.97
-6.01
-4.85
-3.62
-2.40
-1.24
-0.15
0.88
1.87
2.82
3.69
4.43
4.98
5.31
5.42
5.31
5.04
4.65
4.23
3.87
3.66
3.65
3.86
4.21
4.58
4.84
4.87
4.64
4.18
3.64
3.14
2.78
2.57
2.45
2.31
2.05
1.64
1.11
0.49
-0.19
-0.91
-1.64
-2.37
-3.02
-3.56
-3.96
-4.27
-4.58
-5.03
-5.67
-6.50
-7.39
-8.13
-8.51
-8.40
-7.78
-6.70
-5.28
-3.66
-1.96
-0.27
1.29
2.59
3.51
4.00
4.05
3.77
3.33
2.88
2.55
2.37
2.32
2.37
2.46
2.56
2.68
2.80
2.93
3.04
3.13
3.20
3.26
3.33
3.35
3.28
3.05
2.67
2.20
1.74
1.36
1.05
0.73
0.31
-0.26
-0.95
-1.65
-2.27
-2.78
-3.23
-3.72
-4.35
-5.17
-6.13
-7.11
-7.96
-8.54
-8.72
-8.45
-7.71
-6.59
-5.19
-3.64
-2.07
-0.56
0.85
2.12
3.22
4.13
4.77
5.10
5.13
4.95
4.70
4.49
4.36
4.23
4.02
3.66
3.21
2.83
2.68
2.84
3.22
3.62
3.83
3.77
3.47
3.06
2.64
2.23
1.77
1.22
0.58
-0.06
-0.58
-0.96
-1.27
-1.64
-2.20
-2.95
-3.81
-4.65
-5.37
-5.96
-6.52
-7.10
-7.70
-8.22
-8.48
-8.29
-7.57
-6.33
-4.71
-2.94
-1.20
0.35
1.63
2.64
3.42
3.99
4.37
4.58
4.65
4.61
4.51
4.39
4.27
4.15
4.03
3.96
3.97
4.09
4.31
4.54
4.67
4.59
4.27
3.78
3.21
2.68
2.26
1.94
1.68
1.44
1.15
0.81
0.43
0.04
-0.35
-0.74
-1.19
-1.72
-2.34
-3.02
-3.73
-4.44
-5.18
-5.99
-6.87
-7.76
-8.49
-8.83
-8.59
-7.70
-6.25
-4.49
-2.66
-0.97
0.47
1.65
2.58
3.29
3.79
4.10
4.25
4.31
4.34
4.37
4.41
4.41
4.32
4.14
3.91
3.73
3.70
3.89
4.29
4.77
5.13
5.22
4.92
4.27
3.40
2.50
1.73
1.13
0.71
0.41
0.15
-0.10
-0.36
-0.64
-0.98
-1.41
-1.95
-2.61
-3.37
-4.15
-4.91
-5.60
-6.21
-6.76
-7.25
-7.62
-7.79
-7.63
-7.05
-6.03
-4.67
-3.14
-1.63
-0.27
0.90
1.86
2.66
3.31
3.77
4.01
4.01
3.79
3.44
3.07
2.78
2.63
2.64
2.75
2.94
3.15
3.32
3.40
3.31
3.05
2.64
2.18
1.82
1.65
1.63
1.64
1.47
1.00
0.25
-0.65
-1.50
-2.17
-2.60
-2.85
-3.03
-3.26
-3.63
-4.21
-5.04
-6.07
-7.18
-8.17
-8.81
-8.91
-8.41
-7.35
-5.87
-4.14
-2.34
-0.60
0.95
2.23
3.18
3.81
4.14
4.22
4.09
3.80
3.40
2.99
2.66
2.51
2.55
2.75
3.02
3.25
3.38
3.39
3.27
3.09
2.90
2.76
2.67
2.61
2.50
2.23
1.74
1.04
0.20
-0.65
-1.45
-2.15
-2.79
-3.38
-3.96
-4.55
-5.19
-5.93
-6.78
-7.64
-8.33
-8.60
-8.26
-7.28
-5.73
-3.83
-1.79
0.20
2.00
3.47
4.49
4.99
4.99
4.65
4.17
3.76
3.53
3.49
3.58
3.73
3.91
4.06
4.14
4.11
3.95
3.69
3.43
3.29
3.31
3.42
3.49
3.35
2.92
2.23
1.39
0.52
-0.28
-1.03
-1.71
-2.31
-2.78
-3.10
-3.29
-3.49
-3.87
-4.56
-5.58
-6.82
-8.09
-9.14
-9.77
-9.84
-9.27
-8.07
-6.40
-4.45
-2.43
-0.54
1.09
2.39
3.34
3.95
4.30
4.48
4.59
4.70
4.80
4.86
4.83
4.69
4.48
4.28
4.16
4.11
4.10
4.11
4.13
4.19
4.33
4.52
4.65
4.61
4.30
3.71
2.93
2.09
1.31
0.66
0.11
-0.40
-0.91
-1.43
-1.95
-2.46
-2.98
-3.56
-4.24
-5.04
-5.93
-6.86
-7.74
-8.48
-9.00
-9.17
-8.87
-8.02
-6.63
-4.86
-2.94
-1.14
0.35
1.51
2.40
3.14
3.80
4.40
4.88
5.22
5.42
5.52
5.53
5.43
5.14
4.66
4.04
3.44
3.02
2.88
3.05
3.42
3.84
4.16
4.27
4.13
3.73
3.14
2.45
1.75
1.08
0.44
-0.23
-0.91
-1.58
-2.16
-2.58
-2.86
-3.08
-3.40
-3.89
-4.58
-5.38
-6.17
-6.82
-7.20
-7.24
-6.88
-6.09
-4.92
-3.52
-2.05
-0.69
0.46
1.41
2.23
2.98
3.66
4.18
4.42
4.37
4.10
3.77
3.57
3.60
3.82
4.10
4.28
4.28
4.09
3.83
3.58
3.41
3.29
3.15
2.96
2.73
2.50
2.28
2.03
1.66
1.11
0.34
-0.55
-1.43
-2.18
-2.75
-3.17
-3.56
-4.04
-4.69
-5.52
-6.47
-7.40
-8.15
-8.55
-8.51
-7.99
-7.06
-5.83
-4.43
-2.97
-1.54
-0.20
0.99
1.99
2.78
3.34
3.69
3.89
4.00
4.06
4.10
4.13
4.14
4.10
4.01
3.90
3.76
3.65
3.59
3.57
3.60
3.64
3.65
3.61
3.49
3.30
3.03
2.71
2.33
1.92
1.44
0.88
0.23
-0.48
-1.19
-1.84
-2.41
-2.90
-3.38
-3.92
-4.53
-5.22
-5.91
-6.56
-7.10
-7.50
-7.68
-7.55
-7.06
-6.16
-4.96
-3.63
-2.35
-1.24
-0.33
0.45
1.19
1.92
2.63
3.21
3.59
3.74
3.72
3.60
3.48
3.42
3.46
3.62
3.86
4.13
4.39
4.58
4.67
4.64
4.49
4.24
3.91
3.57
3.27
3.07
2.95
2.84
2.64
2.27
1.71
1.02
0.28
-0.40
-0.99
-1.51
-1.96
-2.36
-2.68
-2.90
-3.06
-3.20
-3.40
-3.72
-4.18
-4.77
-5.48
-6.26
-7.01
-7.59
-7.84
-7.64
-6.96
-5.89
-4.61
-3.27
-1.98
-0.76
0.41
1.53
2.54
3.39
4.00
4.37
4.51
4.44
4.21
3.87
3.48
3.15
2.95
2.93
3.04
3.21
3.32
3.31
3.18
3.02
2.92
2.92
2.97
2.97
2.78
2.33
1.63
0.82
0.04
-0.56
-0.94
-1.15
-1.28
-1.45
-1.68
-1.94
-2.19
-2.41
-2.62
-2.91
-3.33
-3.94
-4.67
-5.44
-6.14
-6.70
-7.06
-7.21
-7.13
-6.77
-6.09
-5.12
-3.90
-2.57
-1.24
-0.03
1.01
1.89
2.63
3.24
3.69
3.92
3.87
3.58
3.12
2.68
2.43
2.48
2.80
3.25
3.65
3.85
3.81
3.60
3.36
3.18
3.08
3.01
2.90
2.72
2.50
2.32
2.19
2.05
1.80
1.34
0.69
-0.08
-0.81
-1.42
-1.89
-2.29
-2.73
-3.29
-3.92
-4.52
-4.99
-5.28
-5.43
-5.57
-5.82
-6.28
-6.93
-7.65
-8.23
-8.47
-8.18
-7.29
-5.88
-4.16
-2.40
-0.85
0.35
1.22
1.85
2.36
2.85
3.33
3.74
4.02
4.17
4.22
4.23
4.21
4.17
4.08
3.93
3.73
3.55
3.48
3.52
3.65
3.79
3.84
3.77
3.59
3.38
3.18
2.98
2.74
2.40
1.92
1.37
0.81
0.35
0.03
-0.20
-0.43
-0.79
-1.37
-2.17
-3.11
-4.02
-4.74
-5.21
-5.50
-5.74
-6.11
-6.67
-7.34
-7.94
-8.27
-8.21
-7.73
-6.90
-5.81
-4.55
-3.19
-1.76
-0.34
0.99
2.12
2.99
3.54
3.78
3.75
3.56
3.30
3.10
3.01
3.05
3.17
3.29
3.35
3.31
3.20
3.06
2.93
2.83
2.73
2.59
2.39
2.14
1.83
1.48
1.08
0.65
0.20
-0.25
-0.66
-1.02
-1.34
-1.66
-2.03
-2.48
-3.02
-3.65
-4.34
-5.07
-5.83
-6.59
-7.31
-7.94
-8.40
-8.61
-8.49
-7.97
-7.03
-5.69
-4.06
-2.28
-0.54
1.02
2.28
3.20
3.79
4.09
4.17
4.11
4.02
3.99
4.04
4.11
4.08
3.86
3.47
3.01
2.66
2.58
2.79
3.21
3.67
4.00
4.08
3.89
3.49
2.95
2.34
1.75
1.20
0.67
0.12
-0.50
-1.21
-1.98
-2.73
-3.36
-3.82
-4.11
-4.31
-4.58
-5.06
-5.83
-6.85
-7.95
-8.88
-9.40
-9.38
-8.82
-7.84
-6.58
-5.18
-3.69
-2.11
-0.47
1.15
2.63
3.85
4.72
5.20
5.35
5.27
5.06
4.84
4.69
4.63
4.65
4.68
4.67
4.61
4.52
4.44
4.40
4.40
4.37
4.25
4.01
3.66
3.26
2.91
2.68
2.56
2.48
2.32
1.95
1.31
0.41
-0.59
-1.52
-2.25
-2.75
-3.10
-3.47
-3.98
-4.69
-5.57
-6.51
-7.42
-8.14
-8.57
-8.61
-8.18
-7.27
-5.93
-4.32
-2.60
-0.97
0.46
1.63
2.59
3.36
3.99
4.47
4.79
4.88
4.74
4.42
4.04
3.74
3.62
3.68
3.82
3.90
3.84
3.63
3.37
3.19
3.14
3.17
3.18
3.06
2.74
2.29
1.79
1.32
0.89
0.47
-0.04
-0.68
-1.47
-2.38
-3.35
-4.33
-5.28
-6.19
-7.05
-7.85
-8.55
-9.08
-9.32
-9.12
-8.39
-7.11
-5.37
-3.37
-1.32
0.55
2.11
3.30
4.14
4.71
5.10
5.38
5.57
5.68
5.71
5.67
5.62
5.65
5.77
5.94
6.07
6.05
5.85
5.54
5.24
5.07
5.05
5.06
4.94
4.55
3.87
3.03
2.16
1.40
0.73
0.10
-0.58
-1.33
-2.10
-2.78
-3.32
-3.77
-4.24
-4.82
-5.61
-6.56
-7.56
-8.46
-9.11
-9.43
-9.37
-8.91
-8.06
-6.85
-5.31
-3.50
-1.54
0.40
2.16
3.55
4.50
5.03
5.24
5.31
5.38
5.56
5.85
6.21
6.54
6.76
6.78
6.60
6.25
5.81
5.42
5.14
5.01
5.01
5.07
5.14
5.16
5.12
4.99
4.76
4.40
3.88
3.18
2.32
1.36
0.36
-0.60
-1.46
-2.19
-2.77
-3.22
-3.57
-3.90
-4.26
-4.76
-5.44
-6.29
-7.22
-8.03
-8.52
-8.50
-7.90
-6.77
-5.28
-3.65
-2.04
-0.57
0.73
1.88
2.88
3.76
4.45
4.90
5.08
5.01
4.77
4.50
4.31
4.23
4.20
4.10
3.82
3.36
2.83
2.43
2.30
2.45
2.79
3.15
3.38
3.42
3.31
3.13
2.94
2.72
2.40
1.88
1.13
0.20
-0.77
-1.65
-2.32
-2.78
-3.08
-3.34
-3.61
-3.94
-4.32
-4.80
-5.41
-6.20
-7.13
-8.02
-8.59
-8.57
-7.84
-6.44
-4.63
-2.69
-0.85
0.77
2.16
3.31
4.18
4.70
4.85
4.73
4.52
4.40
4.45
4.64
4.87
5.05
5.16
5.26
5.37
5.50
5.61
5.65
5.62
5.55
5.42
5.20
4.81
4.23
3.49
2.71
1.99
1.42
0.98
0.59
0.18
-0.32
-0.93
-1.65
-2.45
-3.28
-4.06
-4.77
-5.39
-5.93
-6.44
-6.93
-7.40
-7.83
-8.17
-8.42
-8.52
-8.40
-7.94
-7.07
-5.79
-4.17
-2.38
-0.56
1.11
2.54
3.68
4.50
5.01
5.25
5.27
5.16
5.02
4.92
4.88
4.90
4.90
4.83
4.68
4.48
4.27
4.13
4.05
4.01
3.95
3.83
3.66
3.47
3.29
3.10
2.82
2.40
1.82
1.17
0.55
0.03
-0.41
-0.91
-1.59
-2.47
-3.43
-4.24
-4.72
-4.84
-4.72
-4.61
-4.72
-5.15
-5.84
-6.66
-7.45
-8.06
-8.36
-8.26
-7.67
-6.60
-5.14
-3.50
-1.90
-0.50
0.61
1.47
2.12
2.64
3.06
3.40
3.66
3.84
3.91
3.88
3.75
3.54
3.30
3.06
2.87
2.74
2.74
2.88
3.16
3.52
3.83
3.97
3.84
3.44
2.84
2.18
1.56
1.03
0.59
0.20
-0.18
-0.55
-0.93
-1.34
-1.79
-2.29
-2.80
-3.26
-3.63
-3.90
-4.15
-4.49
-5.04
-5.84
-6.83
-7.85
-8.71
-9.24
-9.35
-8.96
-8.09
-6.75
-5.06
-3.19
-1.36
0.19
1.31
2.00
2.39
2.62
2.82
3.02
3.15
3.16
3.04
2.88
2.77
2.81
2.99
3.24
3.45
3.56
3.57
3.52
3.47
3.45
3.42
3.37
3.28
3.15
2.96
2.68
2.29
1.78
1.17
0.53
-0.10
-0.66
-1.16
-1.58
-1.92
-2.19
-2.42
-2.67
-3.02
-3.51
-4.12
-4.79
-5.45
-6.07
-6.66
-7.25
-7.82
-8.28
-8.45
-8.19
-7.48
-6.39
-5.08
-3.73
-2.42
-1.14
0.13
1.36
2.47
3.33
3.84
3.99
3.86
3.63
3.47
3.47
3.65
3.96
4.30
4.58
4.74
4.75
4.63
4.44
4.25
4.15
4.16
4.28
4.40
