1495703403.00
64.000000
-0.00
-0.00
-0.00
-0.00
-0.00
-0.00
-0.00
-0.00
-0.00
-0.00
0.00
0.01
0.01
-0.00
-0.03
-0.05
-0.05
0.00
0.13
0.36
0.66
1.01
1.37
1.72
2.06
2.40
2.79
3.24
3.80
4.42
5.06
5.66
6.20
6.68
7.15
7.68
8.31
9.14
10.09
11.04
11.88
12.56
13.14
13.76
14.65
15.96
17.91
20.32
22.90
25.38
27.58
29.57
31.68
34.32
37.81
42.54
48.15
54.10
59.83
64.97
69.58
74.14
79.34
85.71
93.76
103.00
112.62
121.73
129.77
136.75
143.30
150.75
157.77
166.64
177.95
191.79
206.97
220.57
228.25
225.36
208.53
176.87
132.76
80.05
23.07
-34.94
-92.44
-149.16
-205.23
-260.37
-313.74
-363.87
-409.83
-450.91
-486.50
-515.74
-537.23
-549.22
-549.96
-538.37
-514.21
-478.67
-433.88
-382.45
-327.02
-269.84
-212.63
-156.66
-102.95
-52.37
-5.90
35.58
71.43
101.35
125.50
144.38
158.69
169.15
176.37
180.75
182.57
182.07
179.51
175.23
169.65
163.18
156.15
148.81
141.30
133.69
126.02
118.33
110.69
103.16
95.80
88.68
81.83
75.25
68.95
62.95
57.25
51.86
46.78
42.03
37.59
33.45
29.61
26.07
22.81
19.83
17.11
14.67
12.48
10.54
8.83
7.35
6.07
4.97
4.05
3.27
2.62
2.09
1.65
1.30
1.01
0.79
0.61
0.48
0.37
0.28
0.22
0.17
0.14
0.12
0.12
0.11
0.09
0.04
-0.02
-0.10
-0.18
-0.23
-0.25
-0.25
-0.21
-0.16
-0.10
-0.03
0.06
0.13
0.19
0.21
0.19
0.13
0.04
-0.03
-0.05
-0.02
0.08
0.21
0.31
0.34
0.26
0.06
-0.20
-0.47
-0.66
-0.75
-0.74
-0.70
-0.70
-0.81
-1.01
-1.24
-1.34
-1.25
-0.94
-0.57
-0.33
-0.41
-0.83
-1.41
-1.82
-1.72
-0.98
0.21
1.32
1.74
1.16
-0.25
-1.74
-2.36
-1.60
0.19
1.83
2.06
0.53
-1.72
-2.47
0.58
8.62
21.06
35.68
49.35
58.85
61.62
55.64
40.08
15.75
-14.33
-45.02
-69.87
-83.26
-82.55
-69.62
-50.51
-33.48
-25.88
-31.26
-47.85
-69.22
-87.08
-94.62
-88.98
-71.86
-47.96
-22.49
0.89
21.00
38.29
53.61
67.12
78.16
85.61
88.54
86.51
79.55
68.50
54.81
40.31
26.95
16.35
9.26
5.46
3.92
3.08
1.80
-0.54
-4.28
-9.73
-16.91
-25.28
-33.54
-39.96
-43.42
-43.22
-39.96
-35.62
-32.85
-33.62
-38.23
-45.06
-51.36
-54.69
-52.43
-42.46
-23.29
5.95
45.97
95.94
153.36
214.20
266.88
299.88
306.85
289.74
256.16
214.46
170.48
127.71
88.86
56.46
34.69
27.42
35.94
56.62
83.40
108.64
125.64
130.78
123.83
108.97
92.24
78.67
70.39
66.60
64.43
60.43
55.76
50.13
43.14
33.59
19.89
1.52
-19.18
-36.51
-42.73
-30.92
0.98
49.30
104.90
155.78
190.84
203.13
191.43
159.76
115.40
65.60
16.27
-29.29
-70.31
-107.75
-143.25
-178.39
-214.07
-249.98
-284.43
-313.74
-333.41
-340.02
-334.05
-321.27
-311.83
-316.25
-340.27
-381.32
-428.21
-465.15
-477.71
-458.28
-408.66
-339.35
-266.12
-205.03
-167.72
-158.05
-171.47
-197.25
-222.85
-238.73
-241.15
-232.03
-216.13
-197.39
-176.67
-152.30
-122.53
-88.02
-52.42
-20.70
3.58
20.36
33.01
46.48
64.38
87.42
113.39
138.85
161.18
179.61
195.47
211.11
228.22
246.37
262.94
274.39
278.26
274.32
263.99
249.75
234.41
220.39
209.10
200.89
195.42
191.90
189.01
183.77
172.69
154.00
129.09
101.92
77.09
58.11
46.00
39.03
32.51
21.15
1.96
-24.76
-56.53
-90.24
-122.77
-151.26
-164.65
-155.77
-128.86
-98.53
-79.18
-76.40
-85.89
-97.56
-101.31
-95.46
-81.61
-65.44
-52.81
-46.99
-48.70
-57.48
-72.32
-92.50
-115.29
-137.53
-154.93
-161.76
-152.87
-126.62
-86.37
-38.48
9.51
51.05
81.61
99.68
106.94
107.11
104.11
100.77
100.02
103.11
108.93
114.52
116.85
114.66
109.01
102.57
98.54
101.82
115.72
139.96
170.64
202.21
229.50
249.04
259.86
249.64
215.76
167.47
120.75
87.36
69.65
63.24
61.87
60.58
61.31
63.77
66.55
66.76
61.08
48.06
29.03
7.18
-14.08
-38.44
-63.48
-86.45
-106.86
-126.72
-148.36
-172.20
-196.11
-216.37
-232.25
-240.74
-240.71
-233.66
-222.57
-210.15
-197.94
-186.87
-178.09
-171.83
-168.78
-169.94
-175.68
-185.09
-195.94
-205.50
-211.68
-213.82
-212.49
-208.32
-202.13
-194.53
-185.71
-175.46
-163.53
-150.01
-135.44
-120.67
-106.24
-92.26
-78.14
-62.51
-43.60
-19.60
10.79
47.97
91.18
138.46
186.52
231.15
268.12
294.35
309.06
314.23
313.99
313.01
314.45
318.61
322.99
323.43
316.25
299.92
275.78
247.42
219.40
195.62
178.45
168.24
163.61
161.90
160.02
155.34
146.52
134.00
119.82
106.97
98.40
96.00
99.83
107.79
115.96
119.73
115.41
101.92
81.61
59.58
41.52
30.91
27.30
26.18
21.26
7.55
-16.24
-47.05
-79.12
-106.70
-126.47
-138.42
-145.03
-149.53
-154.08
-159.10
-163.63
-166.42
-166.92
-165.45
-162.66
-158.73
-152.84
-143.41
-129.09
-109.81
-87.31
-64.71
-45.33
-31.42
-23.38
-19.80
-18.27
-16.36
-12.49
-6.40
1.19
9.03
15.89
20.97
23.95
24.89
24.13
22.07
19.07
15.55
12.09
9.43
8.14
8.40
9.80
11.52
12.55
12.00
9.69
6.14
2.31
-0.99
-3.60
-6.10
-8.95
-12.82
-18.37
-25.77
-34.51
-43.46
-51.19
-56.44
-58.58
-56.59
-50.65
-41.99
-31.93
-21.18
-9.71
2.68
15.71
28.32
41.03
53.52
64.66
73.02
77.84
79.48
79.65
81.28
87.13
100.81
121.40
143.04
157.53
158.86
146.30
124.54
101.42
68.98
25.90
-24.29
-75.25
-121.90
-161.38
-192.16
-214.14
-227.60
-237.05
-243.32
-246.10
-244.14
-235.80
-219.46
-194.16
-162.02
-126.68
-92.42
-60.02
-29.39
-0.46
26.00
48.42
64.83
73.46
73.85
66.76
55.57
43.47
32.60
24.26
19.34
18.49
21.66
27.88
34.98
41.07
44.41
44.07
40.36
34.74
29.29
25.91
26.05
30.39
39.26
52.11
67.41
82.80
95.59
103.43
105.15
101.29
94.01
86.59
82.18
82.74
88.38
97.45
107.36
115.68
121.09
123.74
124.96
126.43
129.39
134.29
140.66
147.54
153.85
158.71
161.55
162.18
160.79
157.85
154.03
150.00
146.29
143.20
140.79
138.82
136.78
133.81
128.78
120.68
109.02
94.29
77.94
61.91
47.81
36.34
27.04
18.65
9.81
-0.38
-12.10
-24.99
-38.59
-52.55
-66.81
-81.33
-95.95
-110.32
-124.05
-136.89
-148.88
-160.18
-170.76
-180.07
-186.88
-189.61
-186.84
-178.11
-164.27
-147.36
-129.95
-114.25
-101.35
-91.15
-82.73
-75.09
-67.61
-60.12
-52.67
-45.22
-37.55
-29.54
-21.42
-13.92
-8.03
-4.58
-3.87
-5.50
-8.63
-12.35
-16.02
-19.35
-22.35
-25.15
-27.98
-31.05
-34.63
-38.85
-43.71
-48.97
-54.22
-58.98
-62.87
-65.70
-67.51
-68.55
-69.18
-69.70
-70.09
-69.88
-68.14
-63.79
-56.04
-44.82
-30.98
-16.00
-1.53
11.21
21.64
29.80
36.06
40.79
44.27
46.70
48.34
49.52
50.48
51.28
51.71
51.29
49.49
45.99
40.77
34.27
27.21
20.38
14.43
9.69
6.14
3.52
1.49
-0.33
-2.18
-4.27
-6.75
-9.77
-13.41
-17.76
-22.82
-28.57
-34.98
-41.90
-49.07
-55.81
-61.07
-63.51
-61.72
-54.62
-41.81
-23.77
-1.74
22.42
46.53
68.28
85.39
95.50
97.02
89.82
75.45
56.77
37.20
19.69
6.17
-2.76
-8.13
-11.67
-14.94
-19.06
-24.60
-31.72
-40.36
-50.02
-59.79
-69.59
-79.26
-88.52
-97.29
-106.09
-115.60
-126.59
-138.78
-150.81
-163.24
-175.82
-186.74
-193.53
-194.91
-190.84
-183.48
-174.47
-164.09
-156.35
-152.49
-149.18
-140.73
-123.90
-99.03
-72.42
-50.37
-36.87
-40.83
-65.10
-103.23
-143.06
-174.85
-193.45
-203.00
-208.82
-215.18
-235.65
-278.79
-342.87
-418.48
-496.38
-568.15
-632.08
-684.41
-654.47
-509.37
-276.07
-22.13
196.45
341.32
433.74
489.46
517.67
523.78
502.12
451.64
383.82
318.86
274.68
262.53
278.74
314.50
361.73
398.77
408.14
388.24
351.99
314.76
287.56
269.47
256.05
242.61
220.56
186.25
143.47
100.23
63.90
39.57
25.70
18.96
15.29
8.29
-5.42
-24.55
-45.12
-64.14
-77.69
-87.03
-94.51
-102.11
-111.44
-121.61
-129.60
-132.04
-127.00
-114.15
-95.43
-73.18
-49.99
-28.72
-11.99
-1.80
0.92
-3.54
-13.65
-27.47
-42.84
-57.80
-70.80
-80.62
-86.54
-88.60
-87.54
-84.17
-78.73
-70.06
-55.99
-34.75
-6.51
25.65
56.53
80.92
95.97
102.28
103.45
103.98
106.91
112.59
119.05
123.50
123.93
119.89
112.08
101.52
88.85
74.35
58.47
42.39
28.13
17.93
13.40
14.58
19.87
26.57
31.86
33.86
32.04
27.11
20.31
12.82
5.50
-1.06
-6.25
-9.30
-9.51
-6.56
-0.94
6.17
13.22
18.93
22.59
24.23
24.29
23.25
21.39
18.74
15.20
10.72
5.47
-0.32
-6.40
-12.65
-19.09
-25.69
-32.23
-38.17
-42.71
-44.97
-44.28
-40.40
-33.84
-25.85
-18.25
-13.06
-11.85
-15.17
-22.24
-31.00
-38.68
-42.56
-40.79
-33.01
-20.38
-5.25
9.57
21.56
29.16
32.04
30.91
27.11
21.96
16.31
10.36
3.81
-3.82
-12.86
-23.27
-34.63
-46.26
-57.36
-67.24
-75.43
-81.78
-86.52
-90.17
-93.40
-96.66
-99.72
-101.43
-99.59
-91.52
-74.99
-49.37
-16.29
20.27
54.93
82.33
98.60
102.37
94.83
79.15
59.30
39.01
21.02
6.85
-3.11
-9.19
-12.08
-12.54
-11.15
-8.34
-4.33
0.80
7.08
14.58
23.23
32.72
42.36
51.13
57.81
61.31
61.08
57.37
51.44
45.05
39.87
36.86
36.02
36.48
36.99
36.54
34.70
31.90
29.00
26.82
25.84
26.11
27.41
29.31
31.37
33.23
34.97
36.72
38.49
40.18
41.74
43.39
45.68
49.68
56.68
68.58
86.14
108.09
131.23
151.57
165.95
172.89
173.27
169.42
165.73
165.30
168.53
173.32
176.85
177.32
174.10
168.24
161.18
156.93
157.64
162.61
168.52
171.97
171.17
165.50
156.15
144.63
136.22
134.39
139.72
149.70
161.16
171.55
177.91
178.52
151.92
90.14
1.82
-90.56
-166.43
-217.30
-243.36
-257.56
-269.74
-285.48
-302.11
-317.15
-328.75
-337.55
-344.39
-344.14
-333.05
-310.44
-287.66
-265.80
-244.64
-222.50
-201.90
-185.46
-174.03
-167.66
-164.52
-162.39
-156.55
-144.80
-127.59
-107.81
-88.46
-71.53
-58.72
-50.43
-46.31
-43.73
-40.96
-37.14
-32.35
-26.34
-18.44
-8.47
3.44
16.38
29.65
41.63
50.70
55.89
57.58
57.24
56.34
55.87
56.02
56.63
57.03
56.62
55.05
52.34
48.59
43.72
37.51
29.81
20.94
11.61
2.83
-4.33
-9.05
-11.02
-10.48
-8.09
-4.62
-0.69
3.35
7.28
10.97
14.21
16.85
18.98
20.97
23.46
27.12
32.27
38.86
46.41
54.27
61.93
69.14
75.92
82.33
88.28
93.39
97.10
98.80
98.04
94.68
88.78
80.59
70.37
58.41
45.03
30.69
16.00
1.70
-11.58
-23.42
-33.79
-42.96
-51.35
-59.35
-67.13
-74.54
-81.19
-86.69
-90.87
-94.07
-97.05
-100.87
-106.37
-113.75
-122.31
-130.50
-136.34
-138.06
-134.64
-126.17
-113.67
-98.70
-82.75
-66.75
-50.95
-35.04
-18.61
-1.60
15.41
31.24
44.39
53.56
58.04
57.97
54.32
48.69
42.90
38.62
37.06
38.68
43.15
49.44
56.09
61.58
64.66
64.62
61.31
55.02
46.31
35.88
24.44
12.75
1.47
-8.91
-18.12
-26.13
-32.95
-38.61
-43.03
-46.21
-48.43
-50.30
-52.68
-56.15
-60.67
-65.24
-68.22
-67.86
-63.07
-53.93
-41.70
-28.43
-16.30
-6.98
-1.29
0.98
1.01
0.83
2.88
9.48
21.96
40.01
61.38
82.42
99.23
109.06
111.28
107.37
100.10
92.17
85.20
79.41
74.02
67.99
60.54
51.34
40.23
27.03
11.51
-6.25
-25.58
-44.94
-62.16
-75.04
-82.06
-82.95
-78.86
-72.14
-65.53
-61.42
-61.10
-64.42
-69.94
-75.51
-79.09
-79.46
-76.48
-70.86
-63.50
-55.02
-45.33
-33.80
-19.82
-3.35
14.88
33.44
50.86
66.21
79.46
91.38
103.05
115.25
128.01
140.47
151.18
158.63
161.87
160.94
156.96
151.56
146.28
141.93
138.23
133.86
126.65
114.10
94.11
65.91
30.97
-6.52
-40.18
-63.14
-70.32
-60.39
-36.30
-3.90
30.26
61.16
86.61
107.09
124.65
141.31
157.70
172.58
183.66
188.47
185.17
173.48
154.65
131.11
105.23
78.05
48.98
17.57
-15.54
-48.30
-77.64
-100.94
-116.91
-126.52
-133.01
-140.93
-153.36
-171.29
-194.10
-219.86
-245.96
-268.64
-283.74
-287.90
-280.11
-260.67
-231.76
-197.23
-162.11
-134.20
-118.87
-115.15
-113.67
-111.14
-107.57
-103.78
-102.38
-103.41
-105.23
-104.69
-98.74
-86.19
-68.73
-48.66
-28.30
-9.37
7.74
23.59
39.41
56.08
73.13
88.31
99.67
106.00
106.99
103.55
97.25
90.16
84.06
79.74
76.55
73.61
70.01
64.96
58.18
49.65
39.66
28.59
16.74
4.16
-8.85
-21.82
-34.27
-45.72
-55.76
-64.01
-70.05
-73.56
-74.52
-73.04
-69.40
-64.06
-57.37
-49.64
-41.06
-31.84
-22.33
-12.97
-4.04
4.72
14.13
25.42
39.59
56.77
75.94
95.08
111.81
124.20
131.24
132.93
129.94
123.10
113.10
100.53
86.10
70.92
56.33
43.58
33.41
25.79
20.12
15.61
11.71
8.36
5.79
4.18
3.42
3.04
2.46
1.34
-0.34
-2.31
-4.28
-6.18
-8.20
-10.62
-13.49
-16.56
-19.25
-21.02
-21.55
-20.96
-19.81
-18.86
-18.79
-19.95
-22.22
-25.00
-27.37
-28.31
-27.05
-23.28
-17.25
-9.70
-1.62
6.11
12.94
18.66
23.32
26.94
29.45
30.73
30.75
29.72
28.06
26.29
24.80
23.72
22.87
21.90
20.51
18.52
15.93
12.87
9.48
5.84
2.00
-2.06
-6.36
-10.90
-15.69
-20.55
-25.23
-29.58
-33.40
-36.47
-38.73
-40.21
-40.99
-41.22
-40.94
-40.35
-39.85
-39.84
-40.56
-41.93
-43.51
-44.50
-43.99
-41.04
-35.21
-26.94
-17.01
-6.28
4.33
13.99
22.14
28.46
33.46
37.59
40.44
42.16
43.53
45.33
48.34
53.06
59.73
69.22
81.66
94.90
107.67
119.76
130.99
141.23
150.29
157.92
165.58
173.94
180.43
183.75
184.23
182.06
177.51
170.85
162.34
154.50
148.79
142.29
133.50
122.90
110.67
97.08
82.42
53.50
6.45
-36.34
-66.91
-88.68
-101.74
-106.32
-102.81
-92.64
-78.60
-62.12
-45.92
-36.09
-35.74
-44.13
-59.43
-78.58
-98.26
-116.33
-129.92
-138.21
-144.19
-150.18
-157.13
-166.31
-173.28
-172.42
-161.12
-139.49
-111.03
-81.21
-57.29
-40.57
-32.18
-32.48
-40.35
-55.03
-72.28
-88.40
-100.80
-102.91
-92.10
-72.10
-56.48
-49.36
-51.44
-58.30
-66.74
-73.91
-77.38
-75.79
-68.81
-56.06
-36.30
-9.87
22.28
58.28
96.27
134.27
169.79
200.42
224.79
243.29
255.93
262.75
263.36
257.62
245.68
227.75
204.50
177.44
149.11
121.44
95.89
73.17
53.63
37.24
23.42
11.32
0.09
-10.72
-21.68
-33.24
-45.70
-58.99
-72.69
-86.32
-99.54
-112.27
-124.79
-137.92
-152.73
-170.10
-190.18
-212.10
-234.16
-254.38
-270.93
-282.47
-288.48
-289.32
-285.90
-279.30
-270.35
-259.50
-247.27
-233.78
-218.78
-201.82
-182.66
-161.52
-138.95
-115.74
-92.72
-71.40
-52.82
-37.21
-23.85
-11.84
-0.44
10.63
21.06
30.30
36.67
39.11
37.78
34.16
30.09
27.03
25.82
26.58
35.39
54.24
80.30
107.40
130.37
146.91
157.03
162.91
165.77
166.27
163.89
158.57
149.61
137.82
124.32
110.03
95.58
81.19
67.18
53.27
39.65
27.10
17.01
10.24
6.81
5.94
6.37
7.12
7.24
6.52
5.43
5.06
6.18
9.01
13.16
17.73
21.81
24.33
24.63
22.53
18.42
12.86
6.32
-0.84
-8.40
-16.11
-23.69
-30.82
-37.09
-42.11
-45.67
-47.76
-48.49
-48.15
-47.09
-45.81
-44.91
-44.85
-45.71
-46.98
-47.59
-46.21
-41.70
-33.49
-21.86
-7.76
7.39
22.12
35.17
45.71
53.34
58.09
60.33
60.67
59.82
58.44
57.06
56.00
55.43
55.37
55.77
56.46
57.18
57.58
57.29
56.07
53.95
51.16
48.08
45.02
42.02
38.81
34.97
30.16
24.42
18.21
12.28
7.28
3.49
0.63
-1.97
-5.15
-9.54
-15.34
-22.32
-29.76
-36.64
-41.74
-43.88
-42.30
-36.84
-28.18
-17.68
-7.04
2.27
9.35
13.99
16.53
17.54
17.58
17.05
16.29
15.58
15.14
15.10
15.49
16.18
17.02
17.90
18.76
19.59
20.43
21.30
22.23
23.10
23.72
23.82
23.14
21.60
19.37
16.86
14.51
12.53
10.86
9.13
6.92
3.99
0.28
-4.02
-8.63
-13.16
-17.09
-19.80
-20.66
-19.29
-15.82
-10.86
-5.40
-0.39
3.54
6.30
8.24
9.80
11.24
12.48
13.17
12.96
11.73
9.81
7.89
6.72
6.81
8.13
10.09
11.80
12.49
11.84
10.19
8.26
6.82
6.27
6.42
6.64
6.17
4.53
1.76
-1.54
-4.48
-6.16
-5.98
-3.82
-0.08
4.43
8.78
12.11
13.91
14.16
13.24
11.87
10.86
10.88
12.37
15.41
19.71
24.59
29.19
32.56
34.05
33.34
30.36
25.29
18.29
9.59
-0.59
-11.99
-24.24
-36.86
-49.39
-61.57
-73.24
-84.23
-94.21
-102.73
-109.25
-113.33
-114.74
-113.56
-110.63
-106.95
-103.33
-100.02
-96.83
-93.37
-89.24
-84.20
-78.21
-72.22
-67.19
-63.56
-60.98
-58.61
-55.69
-51.64
-46.27
-39.75
-33.75
-30.15
-30.05
-33.17
-38.12
-43.00
-45.94
-45.52
-41.23
-35.13
-30.32
-29.50
-33.78
-42.80
-55.43
-70.07
-84.98
-88.82
-73.75
-40.06
3.52
46.26
81.23
106.14
121.76
130.36
134.74
136.73
137.41
137.55
138.34
140.60
143.92
146.74
146.95
140.28
124.67
100.77
71.69
41.94
15.54
-5.20
-19.64
-28.15
-33.51
-36.30
-37.26
-37.27
-36.52
-34.87
-32.17
-28.46
-23.97
-19.08
-14.22
-8.87
-3.79
0.39
3.37
5.33
7.04
9.72
14.56
22.44
32.81
43.72
52.94
58.68
60.19
57.93
53.19
47.45
42.09
37.63
33.92
30.85
28.55
27.41
27.82
29.92
33.47
38.08
43.25
48.35
52.96
56.68
58.98
59.19
56.64
50.87
41.83
29.91
15.76
0.24
-15.84
-31.87
-47.40
-62.18
-76.12
-89.24
-101.63
-113.46
-124.70
-135.05
-143.96
-150.66
-154.50
-155.16
-152.83
-148.14
-141.99
-135.31
-128.88
-123.41
-119.40
-117.15
-116.47
-116.48
-115.72
-112.47
-105.46
-94.44
-80.44
-65.56
-52.24
-42.36
-36.62
-34.41
-34.20
-34.15
-32.74
-29.00
-22.59
-13.57
-2.37
10.23
23.16
35.10
44.85
51.67
55.58
57.31
58.05
58.85
60.38
62.75
65.75
69.06
72.47
75.97
79.76
84.18
89.49
95.75
102.68
109.33
114.08
114.94
110.21
99.12
82.18
60.92
37.39
13.59
-8.97
-29.34
-46.96
-61.48
-72.63
-80.28
-84.30
-84.45
-80.03
-70.26
-54.61
-33.33
-7.61
20.56
48.77
74.75
96.80
114.57
128.29
138.26
144.73
148.06
148.86
147.90
145.95
143.57
142.14
142.45
144.10
145.74
145.83
143.36
137.95
129.86
119.82
110.50
104.11
101.10
100.23
99.64
98.02
94.97
90.99
87.15
86.91
92.72
104.31
118.92
133.00
143.89
150.31
152.18
136.40
97.57
41.04
-19.97
-73.25
-113.27
-140.13
-156.42
-165.07
-168.78
-168.28
-163.54
-155.87
-147.59
-140.99
-137.30
-136.96
-139.85
-146.15
-154.75
-162.30
-167.37
-169.64
-169.19
-166.04
-160.30
-151.86
-141.54
-129.72
-117.00
-104.88
-95.31
-90.03
-89.75
-93.80
-99.01
-101.95
-99.04
-87.48
-66.15
-35.66
2.05
44.76
90.32
137.77
184.19
224.36
252.15
262.49
253.28
226.20
186.12
131.45
69.07
9.20
-40.88
-79.21
-106.15
-121.89
-126.96
-123.31
-115.28
-106.58
-100.75
-99.67
-102.56
-106.69
-109.17
-110.08
-108.80
-106.27
-102.93
-99.80
-97.82
-97.15
-97.02
-96.53
-95.45
-94.24
-94.12
-95.49
-98.56
-103.09
-108.25
-113.10
-116.93
-119.62
-121.41
-122.95
-124.40
-125.73
-126.68
-126.60
-124.60
-119.71
-111.22
-98.75
-82.58
-63.45
-42.78
-22.45
-4.35
10.27
21.47
30.66
40.35
53.20
71.19
94.81
122.96
153.18
182.48
208.03
227.73
240.50
246.32
246.02
241.06
233.20
224.18
215.38
207.71
201.52
196.70
192.67
188.62
183.73
177.38
169.43
160.24
150.56
141.17
132.52
124.55
116.69
108.24
98.63
87.69
75.72
63.27
50.96
39.26
28.30
17.84
7.44
-3.47
-15.41
-28.62
-42.99
-57.94
-72.38
-84.95
-94.31
-99.46
-100.17
-96.96
-91.04
-83.84
-76.62
-70.15
-64.69
-60.15
-56.37
-53.14
-50.22
-47.16
-43.39
-38.34
-31.67
-23.53
-14.39
-4.95
4.24
12.91
21.05
28.74
35.94
42.34
47.40
50.52
51.22
49.27
44.78
38.20
30.38
22.52
15.93
11.61
9.68
9.09
7.77
3.37
-5.59
-18.96
-34.85
-50.43
-63.05
-71.25
-74.94
-74.96
-72.24
-67.26
-60.16
-51.15
-40.99
-30.97
-22.49
-16.38
-12.70
-10.80
-9.77
-8.88
-7.82
-6.63
-5.46
-4.29
-2.96
-1.18
1.27
4.45
8.13
11.90
15.29
17.83
19.16
19.08
17.50
14.55
10.52
5.85
1.09
-3.16
-6.49
-8.66
-9.71
-9.79
-9.12
-7.94
-6.51
-5.14
-4.20
-4.05
-4.91
-6.66
-8.75
-10.33
-10.39
-8.10
-3.07
4.55
13.99
24.11
33.70
41.73
47.71
51.64
53.96
55.28
56.12
56.80
57.39
57.93
58.46
59.17
60.27
61.82
63.67
65.39
66.42
66.34
64.99
62.49
59.21
55.49
51.48
47.06
41.85
35.41
27.48
18.03
7.30
-4.28
-16.23
-28.18
-39.78
-50.83
-61.09
-70.31
-78.27
-84.87
-90.26
-94.87
-99.35
-104.27
-109.85
-115.64
-120.56
-123.10
-121.83
-115.85
-105.17
-90.71
-73.91
-56.33
-39.20
-23.28
-8.95
3.59
14.19
22.70
29.07
33.49
36.26
37.73
38.17
37.65
36.13
33.59
30.08
25.80
21.00
15.85
10.39
4.56
-1.74
-8.54
-15.74
-23.14
-30.49
-37.51
-43.96
-49.70
-54.70
-59.10
-63.13
-66.94
-70.50
-73.52
-75.46
-75.77
-74.11
-70.53
-65.55
-60.01
-54.96
-51.44
-50.25
-51.85
-56.09
-62.13
-68.49
-73.35
-75.11
-72.75
-66.24
-56.29
-44.05
-30.61
-16.61
-2.18
12.88
28.80
45.59
62.99
80.58
97.96
114.83
130.88
145.69
158.54
168.49
174.61
176.31
173.67
167.36
158.46
147.99
136.62
124.52
111.55
97.57
82.74
67.54
52.68
38.77
26.24
15.24
5.83
-1.77
-7.27
-10.39
-11.16
-10.06
-8.01
-6.01
-4.88
-5.01
-6.39
-8.73
-11.55
-14.31
-16.52
-17.95
-18.88
-20.30
-23.49
-29.31
-37.32
-45.47
-50.61
-49.84
-41.98
-28.24
-11.72
3.89
15.88
23.37
27.10
28.53
28.87
28.56
27.44
25.25
22.14
18.72
15.82
14.05
13.54
13.95
14.62
14.89
14.35
12.97
11.05
9.05
7.36
6.13
5.15
4.04
2.44
0.16
-2.73
-5.90
-9.00
-11.81
-14.36
-16.87
-19.59
-22.59
-25.65
-28.40
-30.39
-31.35
-31.28
-30.49
-29.47
-28.83
-29.07
-30.50
-32.99
-35.91
-38.20
-38.63
-36.16
-30.46
-22.12
-12.52
-3.46
3.47
7.29
7.75
5.23
0.44
-5.85
-12.86
-19.79
-25.81
-30.15
-32.22
-31.86
-29.37
-25.41
-20.84
-16.49
-12.96
-10.66
-9.84
-10.53
-12.54
-15.50
-18.86
-22.01
-24.46
-26.03
-26.76
-26.89
-26.63
-26.01
-24.93
-23.25
-20.96
-18.27
-15.66
-13.55
-12.24
-11.76
-12.00
-12.88
-14.50
-17.20
-21.33
-26.94
-33.43
-39.61
-43.91
-45.00
-42.23
-35.85
-27.02
-17.33
-8.44
-1.76
1.85
2.17
-0.44
-5.15
-10.77
-15.91
-19.14
-19.26
-15.57
-8.11
2.25
13.81
24.31
31.52
33.83
30.92
23.61
13.57
2.74
-7.17
-15.01
-20.20
-22.67
-22.69
-20.57
-17.07
-13.35
-10.64
-9.76
-10.93
-13.83
-17.77
-22.00
-25.33
-27.22
-27.84
-27.77
-27.49
-27.12
-26.39
-24.63
-20.80
-12.92
0.09
17.95
39.19
61.88
84.28
105.06
123.70
140.39
156.58
172.28
185.45
192.64
190.82
178.65
156.89
128.11
89.39
44.09
-0.03
-35.36
-58.83
-71.47
-75.85
-74.51
-69.56
-62.94
-55.43
-48.20
-42.52
-38.92
-36.10
-31.62
-23.53
-11.48
2.68
16.70
27.76
34.44
36.10
33.95
30.06
26.03
22.51
19.32
16.62
14.59
13.34
12.73
12.73
13.17
13.50
13.16
11.79
9.75
7.50
5.14
2.26
-1.85
-6.75
-12.48
-18.95
-25.85
-32.39
-37.82
-41.89
-44.74
-46.58
-47.37
-47.17
-46.02
-44.15
-41.84
-39.75
-39.11
-41.29
-46.86
-54.90
-63.37
-69.34
-69.94
-62.89
-47.48
-25.27
0.22
24.85
45.26
59.12
66.45
66.93
61.80
53.70
44.89
35.86
24.72
11.39
-2.79
-16.08
-27.43
-36.89
-43.05
-46.80
-50.62
-56.63
-65.47
-76.44
-88.60
-101.50
-114.92
-128.60
-135.70
-130.87
-112.31
-83.00
-48.43
-14.62
13.78
34.67
48.91
59.45
69.07
79.86
91.90
104.19
114.39
120.54
122.20
120.57
117.23
112.37
105.13
90.67
68.99
43.11
18.10
-1.50
-13.75
-20.01
-24.14
-29.78
-39.34
-50.40
-58.98
-61.16
-54.96
-40.89
-21.53
-0.57
18.79
35.15
49.25
61.05
71.08
80.15
88.84
97.34
105.66
113.99
124.45
137.62
152.70
168.01
181.14
189.67
192.15
188.70
178.46
163.32
145.78
127.74
109.97
92.00
72.83
52.05
30.62
10.66
-5.22
-16.00
-22.73
-28.18
-35.58
-47.22
-63.60
-83.65
-105.65
-127.92
-149.78
-170.83
-190.28
-206.83
-218.94
-225.55
-226.69
-223.44
-217.25
-209.61
-201.48
-193.22
-184.82
-176.19
-167.41
-158.81
-150.90
-144.23
-139.19
-135.45
-131.54
-124.94
-112.79
-93.14
-66.20
-34.71
-3.24
23.41
41.99
51.75
54.30
52.50
49.06
45.64
42.81
40.51
38.73
37.77
37.99
39.55
42.08
44.88
47.11
48.19
47.95
46.55
44.36
41.63
38.47
34.82
30.54
25.60
20.20
14.68
9.45
4.81
0.76
-2.98
-6.89
-11.37
-16.32
-20.95
-23.80
-23.22
-18.02
-8.08
5.40
20.24
34.05
44.97
52.23
56.07
57.35
56.99
55.59
53.53
51.05
48.56
46.57
45.53
45.53
46.25
47.07
47.31
46.59
44.89
42.43
39.46
36.06
32.06
27.26
21.61
15.32
8.93
3.08
-1.68
-5.14
-7.49
-9.19
-10.88
-13.23
-16.69
-21.28
-26.36
-30.53
-31.93
-28.75
-19.91
-5.59
12.56
31.87
49.47
63.08
71.59
75.09
74.33
70.26
63.62
54.95
44.86
34.24
24.05
15.08
7.43
0.49
-6.79
-15.29
-25.03
-35.05
-43.61
-49.00
-50.20
-47.35
-41.67
-34.97
-28.87
-24.29
-21.28
-19.18
-17.12
-14.50
-11.17
-7.39
-3.53
0.16
3.66
6.98
10.08
12.91
15.65
18.87
23.34
29.67
37.68
46.18
53.18
56.65
55.38
49.28
39.28
26.76
12.98
-1.21
-15.12
-28.01
-38.98
-47.23
-52.53
-55.37
-56.77
-57.68
-58.32
-58.01
-55.42
-49.22
-38.74
-24.45
-7.78
9.40
25.50
39.73
52.18
63.36
73.68
83.06
90.79
95.84
97.29
94.81
88.77
80.05
69.78
59.26
50.03
43.52
40.25
39.01
36.72
28.94
11.35
-18.67
-60.73
-110.83
-162.84
-210.56
-249.69
-278.16
-295.88
-303.92
-303.99
-297.87
-286.28
-269.80
-249.25
-226.26
-202.22
-177.95
-153.59
-129.33
-105.41
-80.65
-53.59
-23.04
10.94
48.26
88.60
130.99
172.75
209.46
237.46
252.98
252.63
233.24
194.40
139.47
78.76
25.36
-21.68
-66.76
-114.67
-161.68
-205.16
-241.47
-266.63
-277.55
-273.52
-256.38
-227.87
-190.43
-147.14
-102.31
-59.18
-19.50
16.53
49.32
79.17
107.09
133.16
156.08
172.90
181.20
179.86
169.28
150.79
126.21
98.43
70.37
44.25
20.89
0.28
-18.17
-35.15
-51.10
-65.56
-76.51
-81.14
-76.92
-62.97
-40.45
-12.65
15.70
39.70
55.82
63.07
63.03
58.98
54.36
51.54
50.96
51.29
50.34
46.13
37.83
26.13
12.89
0.50
-8.88
-13.80
-13.63
-8.54
0.74
12.97
26.43
39.09
48.89
54.37
55.21
52.46
48.35
45.41
45.48
48.99
54.82
60.78
64.53
64.41
60.00
52.07
42.31
32.61
24.55
18.97
15.88
14.62
14.17
13.50
11.80
8.63
4.00
-1.80
-8.28
-14.98
-21.64
-28.08
-34.16
-39.50
-43.37
-44.79
-42.96
-37.53
-28.89
-18.01
-6.16
5.47
16.12
25.34
32.97
38.84
42.81
44.77
44.78
43.24
40.83
38.44
36.84
36.51
37.47
39.40
41.76
43.98
45.62
46.38
46.12
44.82
42.54
39.39
35.55
31.18
26.38
21.20
15.66
9.79
3.63
-2.66
-8.94
-15.03
-20.72
-25.86
-30.27
-33.90
-36.75
-38.99
-40.82
-42.40
-43.82
-45.12
-46.42
-47.99
-50.17
-53.17
-56.77
-60.27
-62.53
-62.37
-58.92
-51.86
-41.51
-28.65
-14.32
0.29
13.83
24.86
32.04
34.56
32.57
27.42
21.45
17.29
16.97
21.18
29.10
38.69
47.52
53.68
56.26
55.53
52.62
48.92
45.57
43.07
41.20
39.32
36.62
32.54
27.01
20.34
12.99
5.38
-2.26
-9.83
-17.15
-23.81
-29.29
-33.10
-35.03
-35.11
-33.51
-30.34
-25.49
-18.66
-9.61
1.61
14.62
28.70
43.04
56.99
70.12
82.27
93.34
103.15
111.39
117.75
122.05
124.53
125.83
126.89
128.62
131.64
136.04
141.38
146.84
151.39
154.11
154.37
152.11
147.87
142.59
137.25
132.41
127.98
123.35
117.73
110.79
102.86
94.80
87.53
81.34
75.62
68.97
59.84
47.18
30.97
12.36
-6.63
-23.72
-37.04
-45.71
-49.98
-51.08
-50.82
-50.90
-52.44
-55.74
-60.42
-65.79
-71.31
-76.84
-82.66
-89.18
-96.64
-104.95
-113.63
-122.12
-129.95
-137.05
-143.65
-150.16
-156.82
-163.46
-169.55
-174.47
-177.79
-179.66
-180.78
-182.11
-184.40
-187.90
-192.06
-195.85
-198.14
-197.91
-194.30
-186.47
-173.51
-154.78
-130.46
-102.00
-72.14
-44.15
-20.42
-1.39
14.80
31.50
51.97
77.97
109.11
143.22
177.27
208.56
235.12
255.92
270.64
279.40
282.95
282.80
281.31
281.07
284.32
291.77
302.11
312.08
317.27
313.72
299.42
274.78
241.86
203.65
162.73
120.72
78.56
36.63
-4.20
-42.36
-76.11
-104.83
-128.79
-149.49
-168.49
-186.36
-202.96
-217.11
-227.12
-231.70
-231.07
-225.99
-218.80
-211.65
-205.14
-198.68
-190.50
-178.66
-157.44
-125.79
-87.91
-53.23
-31.15
-20.70
-16.80
-14.02
-8.79
-1.69
2.78
-0.62
-18.46
-54.73
-108.82
-176.95
-253.72
-333.34
-410.15
-478.42
-513.55
-497.19
-429.59
-331.33
-230.40
-147.90
-92.00
-60.89
-47.60
-41.59
-37.05
-33.30
-31.60
-32.37
-34.77
-35.37
-31.07
-19.41
2.36
34.26
73.24
114.72
154.83
190.48
222.27
250.85
276.53
304.31
338.56
380.82
429.28
480.21
527.38
566.37
591.09
567.37
477.63
333.02
169.33
24.69
-69.28
-119.89
-138.49
-136.06
-121.70
-101.53
-79.84
-63.07
-59.38
-74.57
-109.36
-154.70
-199.31
-233.68
-249.92
-242.36
-210.31
-157.74
-91.08
-17.77
57.42
128.30
187.87
217.60
204.98
154.07
86.04
24.42
-18.90
-43.20
-55.47
-60.96
-63.68
-60.98
-49.45
-28.95
-3.44
21.09
41.01
46.85
35.45
8.29
-27.24
-63.29
-95.02
-121.45
-143.87
-163.48
-180.86
-194.81
-206.53
-214.22
-217.06
-216.04
-213.76
-212.88
-214.34
-216.38
-214.19
-203.16
-179.53
-141.40
-91.43
-36.09
16.85
61.40
95.54
121.83
144.70
168.58
195.36
225.69
257.47
286.40
307.60
317.72
316.04
303.63
283.08
257.77
233.87
216.81
209.10
209.60
214.60
219.30
218.88
210.28
178.67
121.65
50.87
-15.75
-66.83
-101.30
-123.38
-137.11
-143.78
-143.30
-134.08
-117.63
-99.01
-84.61
-78.50
-80.93
-89.60
-100.91
-111.45
-116.82
-113.91
-102.09
-83.84
-63.97
-47.87
-43.63
-55.96
-82.92
-114.80
-138.77
-144.86
-130.55
-100.52
-63.37
-27.57
1.56
23.98
40.47
50.59
52.09
42.36
21.51
-6.06
-32.22
-47.82
-47.69
-32.20
-7.23
20.90
45.82
63.22
71.60
71.64
65.47
55.33
41.69
26.36
10.88
-4.07
-18.08
-30.86
-42.46
-52.84
-63.08
-72.30
-79.17
-82.26
-80.86
-75.27
-66.79
-57.47
-48.97
-42.27
-37.44
-34.30
-32.55
-32.35
-34.14
-37.90
-43.95
-51.79
-60.78
-70.13
-79.38
-87.05
-91.55
-91.88
-88.04
-80.97
-70.54
-56.85
-40.74
-24.80
-10.32
1.87
11.24
17.76
22.38
29.03
41.08
59.00
78.57
96.56
110.26
118.29
120.71
119.67
121.44
131.54
151.73
177.81
206.44
233.93
256.25
269.04
253.42
201.42
121.95
48.98
-7.53
-45.41
-67.58
-75.20
-71.08
-58.80
-39.18
-12.83
14.45
34.03
42.78
41.68
33.88
22.40
10.16
1.66
-0.54
2.66
6.38
7.88
5.89
0.23
-9.02
-21.19
-33.91
-44.83
-52.85
-58.70
-62.10
-62.96
-61.53
-58.66
-55.12
-50.81
-46.10
-42.12
-41.25
-44.90
-52.89
-62.93
-70.89
-71.94
-62.31
-41.34
-12.58
17.37
42.06
57.50
63.56
63.18
60.61
59.13
60.32
63.76
67.96
71.26
71.88
67.71
56.11
34.60
1.37
-40.99
-85.90
-124.98
-151.42
-162.91
-161.96
-153.90
-143.61
-133.29
-122.24
-109.22
-94.69
-81.39
-72.86
-70.74
-72.99
-74.33
-68.74
-52.47
-26.16
5.69
37.18
63.61
83.25
97.09
107.23
115.11
120.72
122.89
120.35
112.93
101.87
89.41
77.71
67.85
59.50
51.30
41.74
30.28
17.97
7.19
0.61
-0.41
3.00
6.97
6.15
-4.19
-26.14
-58.03
-95.06
-131.07
-160.55
-179.82
-187.13
-181.90
-164.35
-135.68
-98.57
-57.32
-16.91
18.44
46.66
68.07
84.24
96.37
104.06
105.53
98.96
84.26
63.93
42.57
25.19
15.17
13.09
16.81
22.72
27.47
29.26
28.14
25.25
21.54
16.72
9.53
-1.22
-15.13
-29.69
-41.08
-46.13
-44.10
-37.20
-29.31
-23.85
-22.07
-22.75
-23.30
-21.42
-16.31
-8.60
0.36
9.53
18.59
27.71
36.77
45.03
51.24
54.23
53.59
49.98
44.88
39.90
36.01
33.04
29.74
24.47
16.14
4.90
-7.77
-19.81
-29.56
-36.41
-40.67
-42.73
-42.32
-38.31
-29.57
-16.11
-0.01
14.87
24.28
25.33
17.91
4.76
-9.61
-20.70
-25.61
-23.78
-16.66
-6.81
3.19
11.60
17.81
22.19
25.63
28.99
32.69
36.68
40.58
43.84
45.85
45.83
42.82
36.00
25.07
10.66
-5.58
-21.53
-35.29
-45.77
-52.84
-57.03
-58.92
-58.81
-56.69
-52.54
-46.72
-40.04
-33.49
-27.92
-23.79
-21.25
-20.28
-20.83
-22.67
-25.34
-28.08
-29.80
-29.25
-25.23
-17.05
-4.82
10.45
27.14
43.68
59.16
73.66
87.89
102.42
116.83
129.45
137.82
139.78
134.38
122.58
106.88
90.47
76.21
65.92
60.14
58.41
59.74
63.05
67.39
71.87
75.40
76.65
74.42
68.44
59.84
50.96
44.21
40.67
39.13
36.58
29.72
16.39
-3.69
-29.64
-60.51
-96.02
-136.25
-180.71
-227.45
-272.86
-312.38
-341.43
-356.13
-353.82
-333.56
-296.73
-247.57
-193.00
-141.29
-99.96
-73.60
-62.60
-63.42
-69.88
-75.21
-74.06
-63.69
-44.16
-17.76
12.05
41.64
67.77
87.91
100.36
104.53
101.16
92.19
80.18
67.27
54.47
41.57
28.00
13.99
1.21
-7.74
-10.45
-6.03
4.51
18.94
35.09
51.65
68.18
84.39
99.38
111.45
118.69
119.74
113.95
100.98
80.25
51.11
13.81
-29.09
-72.30
-109.00
-133.50
-143.91
-142.96
-136.31
-129.16
-123.20
-115.94
-102.80
-80.66
-50.56
-17.77
10.69
29.44
37.24
37.16
34.55
34.09
37.68
43.96
49.92
53.13
53.25
51.93
51.35
52.55
54.84
56.49
56.07
53.41
49.28
44.65
39.44
32.64
23.68
13.99
7.54
9.15
21.78
44.65
73.26
100.88
121.10
130.12
127.60
116.38
100.74
84.66
70.75
60.43
53.38
47.70
40.70
29.38
11.65
-14.23
-49.30
-92.97
-140.58
-185.73
-222.79
-248.66
-263.92
-270.13
-270.06
-265.40
-254.28
-228.03
-178.98
-106.87
-20.91
62.26
128.79
169.30
181.85
173.00
159.79
157.21
170.75
196.76
226.33
257.30
289.07
320.34
349.26
380.42
416.60
456.18
495.28
528.99
561.15
593.79
624.67
602.97
504.83
352.43
196.14
93.24
28.14
-19.65
-63.97
-116.02
-174.25
-224.34
-253.93
-261.11
-254.16
-247.25
-244.74
-246.96
-252.13
-256.53
-251.76
-233.65
-205.93
-178.04
-161.28
-157.29
-163.26
-173.83
-181.58
-176.70
-154.05
-116.60
-73.89
-37.92
-13.99
-2.87
-2.44
-9.10
-18.68
-29.38
-41.99
-57.95
-77.55
-97.24
-112.90
-122.09
-124.60
-121.72
-115.92
-110.14
-106.75
-106.80
-108.96
-110.53
-108.51
-100.22
-84.14
-60.18
-29.67
4.84
39.91
71.57
96.09
110.89
115.60
112.47
105.77
99.94
97.41
97.24
95.32
86.26
66.07
34.01
-7.11
-52.37
-96.94
-137.86
-174.51
-207.93
-239.40
-269.23
-296.44
-319.18
-335.63
-344.67
-345.77
-338.16
-320.09
-289.10
-243.40
-184.13
-116.62
-49.85
6.53
46.17
68.69
79.63
87.36
98.78
115.99
135.69
151.43
156.97
149.06
128.21
97.73
61.95
24.87
-10.21
-40.36
-62.94
-75.94
-78.69
-72.51
-60.39
-45.73
-30.83
-16.00
0.21
19.56
42.40
66.87
89.35
106.17
115.56
118.79
120.02
124.61
136.89
158.00
185.27
212.95
234.48
245.04
243.26
231.43
214.04
195.63
179.19
165.55
154.14
144.14
135.30
127.94
122.25
117.82
113.49
107.97
100.47
90.91
79.59
66.58
51.28
32.82
11.00
-12.80
-35.49
-53.17
-62.84
-63.75
-57.64
-47.89
-37.83
-29.49
-23.17
-18.15
-13.72
-9.92
-7.46
-6.98
-8.36
-10.60
-12.30
-12.54
-11.66
-11.31
-13.88
-21.44
-34.76
-52.82
-72.98
-91.75
-105.82
-112.96
-112.51
-105.26
-92.90
-77.47
-60.45
-42.54
-23.88
-4.52
15.09
34.29
52.49
69.44
85.11
99.67
112.91
123.90
131.04
132.70
128.23
118.58
106.13
93.39
82.53
74.80
70.21
68.22
68.08
69.69
73.35
79.04
84.60
87.69
86.55
80.47
70.10
56.43
40.97
24.96
8.38
-12.39
-40.29
-76.13
-118.93
-166.25
-216.72
-268.39
-318.61
-364.38
-405.57
-439.43
-460.71
-465.48
-453.55
-432.25
-411.26
-398.51
-397.23
-408.95
-427.15
-439.75
-435.51
-407.73
-359.17
-296.56
-227.53
-129.89
-6.02
120.37
221.42
275.40
295.49
295.90
287.45
279.54
277.03
277.37
277.50
279.39
282.88
286.09
284.45
277.35
268.32
260.93
252.70
238.29
214.60
181.72
144.11
105.99
71.92
48.31
37.91
36.39
33.20
17.67
-16.74
-69.25
-134.63
-204.39
-269.89
-325.54
-351.94
-338.45
-289.84
-223.43
-155.46
-94.90
-44.60
-5.26
22.64
38.86
41.80
32.66
16.24
-0.71
-13.57
-21.08
-25.68
-31.92
-43.86
-65.04
-93.93
-122.98
-141.31
-140.03
-116.36
-74.37
-22.28
32.15
81.24
120.69
151.93
180.29
211.21
247.09
286.64
325.88
359.68
382.24
388.91
377.19
347.18
301.75
246.40
188.64
136.13
94.41
65.06
46.32
34.94
28.10
24.60
24.59
28.35
34.91
41.77
45.66
44.49
38.48
29.97
22.21
17.61
16.74
18.24
19.74
19.19
15.79
10.20
3.94
-1.61
-6.02
-9.83
-14.14
-19.70
-26.32
-32.79
-37.43
-39.12
-37.89
-35.04
-32.54
-32.11
-34.53
-39.35
-45.17
-50.32
-53.56
-54.55
-53.83
-52.47
-51.56
-51.66
-52.57
-53.44
-53.07
-50.47
-45.19
-37.49
-28.21
-18.53
-9.58
-2.18
3.24
6.66
8.27
8.40
7.38
5.51
3.12
0.66
-1.42
-2.71
-2.96
-2.25
-0.82
0.95
2.75
4.49
6.33
8.42
10.80
13.28
15.47
17.00
17.71
17.77
17.54
17.40
17.44
17.42
16.88
15.41
12.90
9.67
6.34
3.50
1.49
0.13
-1.25
-3.59
-7.86
-14.76
-24.49
-36.65
-50.28
-64.05
-76.58
-86.82
-94.35
-99.45
-102.91
-105.66
-108.29
-110.69
-112.01
-110.77
-105.33
-94.51
-78.02
-56.81
-32.87
-8.73
13.23
31.33
44.69
53.20
57.17
57.25
54.41
49.95
45.29
41.55
39.14
37.70
36.34
34.31
31.38
28.02
25.13
23.63
24.16
27.01
32.08
38.96
46.77
54.26
59.98
62.74
62.17
58.70
53.44
47.49
41.50
35.49
29.01
21.58
12.80
2.35
-10.23
-25.53
-44.02
-65.63
-89.36
-113.42
-135.72
-154.35
-168.09
-176.22
-178.40
-174.47
-164.58
-149.41
-130.34
-109.15
-87.57
-66.78
-47.33
-29.29
-12.64
2.59
16.43
29.15
41.37
53.74
66.61
79.67
92.00
102.38
109.76
113.59
113.98
111.59
107.40
102.49
97.67
93.25
88.95
84.06
77.62
69.08
58.46
46.37
33.73
21.28
9.25
-2.81
-15.88
-31.39
-50.80
-75.19
-104.53
-137.11
-169.35
-196.34
-213.17
-216.60
-206.14
-184.15
-154.68
-121.84
-88.50
-56.10
-25.47
2.31
25.46
42.22
51.79
55.10
54.41
52.27
50.33
48.81
46.92
43.73
38.88
32.74
26.09
19.59
13.76
9.00
5.76
4.30
4.38
5.06
4.99
3.07
-0.94
-6.30
-11.75
-16.31
-19.72
-22.40
-25.01
-27.86
-30.78
-33.45
-35.75
-38.01
-40.79
-44.33
-48.25
-51.43
-52.51
-50.54
-45.44
-38.05
-29.91
-22.54
-16.91
-13.05
-10.00
-6.15
0.28
10.62
25.34
43.68
63.70
82.91
99.18
111.43
119.95
126.23
132.30
139.74
148.93
158.73
167.25
172.90
175.17
174.63
172.35
169.32
166.15
163.08
159.93
156.38
151.65
143.88
130.02
106.73
72.29
27.92
-22.30
-74.13
-123.92
-169.20
-208.73
-242.52
-271.35
-296.11
-317.55
-335.76
-351.98
-365.49
-372.49
-367.47
-346.69
-310.76
-264.32
-214.36
-167.80
-133.36
-116.43
-116.68
-128.16
-142.40
-151.05
-147.39
-127.68
-92.25
-50.43
-13.59
9.91
16.56
5.50
-23.59
-70.85
-135.76
-186.36
-199.52
-173.70
-125.66
-70.51
-13.61
44.66
103.28
159.02
207.54
240.43
251.88
242.02
216.13
180.43
139.75
97.14
55.49
18.45
-13.96
-41.95
-64.26
-78.44
-83.16
-79.30
-69.38
-56.34
-42.56
-31.57
-25.02
-21.43
-16.83
-8.85
3.29
18.48
34.77
50.58
64.35
76.01
86.94
98.82
111.93
124.86
135.13
140.39
139.27
131.05
115.87
94.73
69.27
41.68
14.62
-9.08
-26.62
-35.55
-34.12
-21.52
1.81
34.01
72.05
112.39
151.80
188.06
220.33
248.84
274.12
296.11
313.47
323.53
323.00
309.24
281.56
242.07
195.42
147.32
102.38
62.35
25.95
-9.73
-46.88
-85.22
-121.80
-152.51
-174.39
-187.17
-193.21
-195.96
-197.86
-198.89
-196.61
-187.72
-169.99
-143.77
-112.14
-79.87
-51.85
-31.92
-22.38
-24.11
-36.85
-59.18
-88.55
-121.09
-151.89
-175.81
-188.62
-188.09
-174.49
-150.48
-120.16
-87.93
-57.34
-30.68
-8.89
7.87
19.68
26.40
27.65
23.10
12.86
-2.22
-20.45
-39.57
-57.14
-70.99
-79.71
-82.63
-79.44
-69.67
-52.42
-26.88
6.43
44.67
82.68
114.54
136.13
146.98
150.43
151.64
154.71
160.59
167.04
170.48
168.57
161.48
151.53
141.26
131.68
121.63
108.63
90.72
67.80
41.82
16.01
-6.63
-24.32
-37.00
-45.88
-52.69
-58.88
-65.33
-72.59
-81.19
-91.80
-105.06
-120.98
-138.28
-154.15
-164.99
-167.81
-161.79
-149.12
-134.17
-121.51
-113.56
-109.37
-105.30
-97.16
-82.54
-62.07
-38.80
-16.34
3.04
19.16
33.37
46.99
60.15
72.02
82.05
91.37
102.98
120.52
146.04
178.22
212.39
242.29
262.72
271.60
270.29
262.18
250.54
237.03
221.65
203.83
183.68
162.45
141.83
122.90
105.30
87.65
68.52
47.73
26.96
9.35
-1.70
-4.09
2.14
14.90
30.97
46.90
59.62
66.55
65.66
55.94
38.36
16.49
-3.86
-16.75
-18.89
-11.77
-1.69
2.69
-6.11
-31.63
-72.91
-125.88
-185.32
-245.87
-301.83
-346.53
-372.86
-374.98
-350.88
-304.13
-243.30
-179.32
-121.69
-75.22
-39.06
-8.19
23.30
58.56
96.06
130.38
155.26
167.47
169.00
166.28
166.88
175.15
189.92
205.04
212.90
208.48
191.88
167.87
143.13
122.85
108.58
98.31
88.14
74.64
56.46
34.77
12.54
-6.91
-21.07
-28.65
-29.45
-24.10
-14.22
-3.17
3.88
1.07
-15.53
-44.96
-79.95
-108.37
-117.85
-101.47
-61.94
-11.30
33.62
58.40
56.96
33.60
0.27
-29.40
-46.03
-47.85
-39.88
-30.34
-25.69
-27.53
-32.40
-34.89
-31.63
-23.73
-15.77
-12.12
-13.52
-16.15
-14.37
-5.10
9.48
22.90
28.75
25.38
17.28
12.26
16.18
28.89
44.21
53.71
51.60
37.38
15.01
-10.47
-35.81
-60.12
-83.55
-105.18
-122.09
-130.15
-125.70
-107.26
-76.21
-36.78
4.70
40.75
64.28
70.61
59.60
36.74
11.92
-3.78
-2.22
18.70
54.74
97.37
137.06
166.28
180.86
179.71
164.15
137.00
102.05
63.69
26.63
-4.66
-26.43
-36.37
-34.47
-23.69
-9.74
0.59
2.28
-5.52
-18.68
-30.11
-33.28
-25.26
-7.61
15.22
38.51
59.17
75.81
87.63
93.49
91.96
82.14
64.52
40.73
12.38
-19.97
-57.07
-100.03
-149.15
-202.92
-257.89
-309.07
-350.63
-376.64
-382.12
-364.54
-325.11
-269.09
-204.63
-140.43
-83.20
-36.12
1.12
31.22
57.54
83.06
109.85
139.22
171.83
207.77
246.13
284.84
320.63
349.28
366.70
370.36
360.20
338.78
310.32
279.32
248.88
219.95
191.25
160.58
126.64
89.84
52.43
17.79
-10.44
-28.89
-35.75
-32.18
-22.29
-11.39
-4.01
-1.99
-4.08
-7.14
-7.74
-4.39
1.19
5.20
4.38
-3.31
-18.65
-41.45
-70.32
-101.49
-128.76
-145.83
-148.82
-137.18
-115.27
-90.04
-67.40
-55.97
-57.22
-62.69
-61.06
-48.81
-31.30
-17.89
-13.98
-18.01
-20.93
-18.34
-10.31
-1.98
-1.27
-13.59
-41.35
-82.92
-131.82
-176.36
-204.47
-207.95
-185.66
-149.98
-107.57
-64.44
-25.32
7.05
32.08
51.41
66.53
79.22
90.75
103.01
116.11
129.25
141.23
150.51
155.26
153.99
146.06
131.90
114.06
95.19
77.70
63.13
51.87
43.12
35.50
27.63
17.86
4.48
-15.46
-44.99
-85.51
-135.06
-188.09
-236.75
-273.38
-293.34
-296.00
-284.79
-265.54
-244.65
-226.89
-214.53
-207.29
-203.07
-198.78
-191.25
-178.45
-160.38
-139.57
-118.99
-100.63
-85.46
-74.22
-68.00
-67.98
-74.93
-88.70
-108.50
-130.76
-149.54
-159.03
-156.39
-142.38
-120.39
-95.22
-72.06
-56.69
-51.69
-55.06
-61.09
-62.59
-52.46
-25.04
21.83
93.31
178.18
252.24
293.20
295.15
268.12
228.48
190.24
160.68
140.39
124.58
109.59
95.52
84.95
79.65
79.24
81.84
85.01
86.45
83.52
75.62
64.50
53.07
43.26
35.71
30.50
27.09
24.10
18.95
10.28
-1.04
-12.47
-21.32
-25.99
-25.69
-20.43
-10.63
3.22
21.43
44.58
72.22
100.31
119.39
120.42
99.65
60.42
11.41
-36.48
-74.03
-96.32
-103.40
-99.53
-90.10
-80.00
-72.33
-67.99
-65.77
-63.47
-60.97
-56.70
-50.77
-43.88
-36.83
-30.08
-23.82
-18.08
-13.94
-13.35
-17.87
-27.14
-37.77
-44.59
-43.33
-33.11
-16.44
1.17
14.44
19.50
16.45
9.21
2.73
-0.27
-0.28
1.15
2.30
3.03
5.39
12.61
27.14
48.95
75.01
100.99
124.87
145.84
163.96
179.23
191.03
197.89
197.77
188.70
162.67
119.94
68.66
19.80
-20.08
-50.71
-76.75
-101.19
-124.97
-147.82
-164.24
-170.85
-167.71
-158.17
-146.78
-137.24
-131.19
-128.23
-126.38
-121.97
-112.15
-96.36
-76.11
-53.47
-29.69
-5.20
20.53
45.66
67.75
85.76
100.32
113.03
125.47
138.35
149.95
157.05
159.93
156.68
147.78
135.13
121.35
108.89
99.34
91.05
80.97
66.18
43.62
14.02
-20.20
-55.26
-86.65
-106.14
-108.34
-93.36
-67.70
-40.16
-16.16
2.09
14.46
20.56
19.45
6.56
-21.28
-63.18
-113.83
-164.89
-209.31
-242.75
-264.82
-263.30
-235.90
-187.50
-129.20
-74.53
-34.08
-13.59
-11.46
-21.16
-34.26
-46.91
-56.79
-62.85
-65.69
-67.23
-71.84
-80.68
-93.98
-109.21
-123.36
-131.98
-131.62
-122.23
-106.34
-89.38
-72.12
-52.21
-26.14
6.86
45.38
86.84
129.15
173.05
205.74
217.95
207.78
182.49
151.20
119.06
86.70
52.81
26.29
4.35
-11.47
-18.66
-16.15
-5.50
10.92
32.48
51.48
67.12
79.42
92.83
111.64
137.49
168.04
197.74
219.63
227.12
217.03
187.64
142.79
88.96
33.13
-19.11
-64.29
-100.69
-127.44
-142.58
-144.89
-132.21
-103.71
-61.13
-8.83
47.43
102.08
150.67
190.77
219.92
236.18
237.86
224.34
197.31
161.12
121.93
85.72
56.62
35.45
20.43
8.70
-1.96
-12.06
-20.48
-25.56
-26.29
-22.91
-16.83
-9.69
-2.47
4.50
10.87
15.25
14.93
6.72
-11.51
-39.37
-73.79
-110.04
-143.70
-172.09
-194.47
-210.84
-220.35
-220.55
-208.28
-181.55
-141.50
-92.79
-42.40
2.82
38.28
62.54
76.63
82.70
82.64
77.66
68.66
56.79
43.61
30.88
19.99
11.68
6.15
3.36
3.24
5.70
10.41
16.77
23.99
31.32
38.23
44.41
49.63
53.73
56.76
59.15
61.69
65.10
69.41
73.71
76.34
75.85
71.87
65.48
58.74
53.65
51.05
50.29
49.79
47.96
44.06
38.42
31.95
25.22
17.95
8.90
-3.30
-19.20
-37.88
-57.18
-74.67
-88.90
-99.95
-109.06
-117.55
-125.64
-132.20
-135.37
-133.60
-126.57
-115.21
-101.08
-85.66
-70.18
-55.77
-43.90
-36.21
-33.95
-37.13
-44.23
-52.50
-58.91
-61.03
-57.73
-49.35
-37.72
-25.81
-17.12
-14.39
-18.32
-26.75
-35.01
-37.61
-30.45
-12.54
13.64
43.10
70.15
90.00
99.80
98.95
88.98
73.07
55.45
40.23
30.04
25.12
23.43
21.96
18.53
13.12
7.95
6.21
10.35
20.80
35.86
52.65
68.21
80.37
87.65
89.06
83.85
71.96
54.53
33.92
12.80
-7.32
-27.04
-48.72
-74.66
-104.97
-136.47
-163.47
-180.16
-183.21
-173.18
-153.90
-130.64
-108.12
-89.47
-76.16
-68.62
-66.51
-68.56
-72.55
-75.58
-75.03
-69.53
-59.38
-46.27
-32.42
-19.78
-9.69
-2.89
0.36
0.40
-1.65
-3.94
-4.40
-1.68
4.17
11.62
18.51
23.29
25.93
27.91
31.25
37.26
45.76
55.11
63.14
68.17
69.63
67.71
62.59
53.94
41.18
24.22
4.32
-16.06
-34.12
-48.02
-57.60
-63.91
-67.96
-69.69
-67.90
-61.31
-49.95
-35.91
-22.64
-13.35
-9.26
-9.14
-10.10
-9.18
-4.72
3.23
13.40
24.35
35.30
46.22
57.30
68.15
77.50
83.70
85.84
84.78
83.14
84.22
90.01
99.74
109.86
115.68
113.74
103.59
87.93
70.92
56.03
44.39
34.95
25.75
15.73
5.58
-2.64
-6.74
-5.75
-0.51
6.71
13.26
17.35
18.67
18.18
17.04
15.60
13.05
8.18
0.51
-8.71
-16.49
-19.80
-17.51
-11.18
-4.42
-0.87
-2.06
-6.65
-11.27
-12.41
-8.67
-1.45
6.14
11.17
12.28
10.15
6.39
2.54
-0.31
-2.25
-4.34
-7.19
-10.49
-12.88
-12.49
-8.60
-1.71
7.78
18.71
29.49
39.66
49.81
60.73
72.41
82.25
86.91
86.78
84.06
81.27
81.79
87.91
99.52
114.23
126.82
132.81
134.62
136.09
138.84
143.54
149.34
154.35
156.79
153.27
141.02
123.64
103.39
77.96
44.27
-0.57
-58.27
-112.08
-143.62
-173.55
-213.65
-255.31
-295.61
-333.15
-367.48
-399.01
-428.40
-458.71
-492.79
-525.98
-552.38
-566.76
-563.20
-537.27
-488.86
-422.41
-347.29
-273.85
-205.81
-144.25
-88.75
-37.12
13.26
63.92
116.15
170.95
229.47
296.94
368.24
432.56
481.39
511.69
522.03
511.09
478.86
428.29
367.87
308.04
261.21
229.05
209.40
196.81
185.17
170.72
152.30
132.29
114.37
106.80
113.99
134.12
158.79
174.50
175.22
159.28
129.33
90.53
48.23
9.95
-19.92
-40.60
-53.82
-61.59
-66.21
-69.30
-72.22
-76.36
-84.17
-98.66
-122.18
-155.47
-197.16
-245.53
-299.08
-356.75
-416.90
-476.37
-529.72
-569.62
-589.12
-584.25
-556.38
-511.41
-457.24
-400.73
-345.82
-293.73
-244.21
-197.14
-153.27
-113.82
-79.10
-47.60
-16.29
17.76
55.66
95.82
134.27
166.15
187.66
197.56
197.64
191.73
183.88
176.78
171.22
166.65
162.40
158.68
156.68
158.10
164.37
176.31
194.02
217.19
244.90
275.03
303.53
324.40
331.02
318.78
287.48
242.23
191.53
143.52
102.29
66.46
30.99
-9.01
-54.72
-102.53
-145.88
-178.50
-197.07
-201.61
-194.17
-177.26
-153.27
-125.00
-96.09
-70.58
-51.33
-38.52
-29.39
-19.53
-5.19
14.77
38.49
62.08
81.77
95.50
103.50
107.55
109.29
108.93
104.89
95.09
78.70
57.56
35.87
18.10
6.57
0.09
-5.08
-12.53
-22.81
-32.55
-36.27
-29.71
-12.71
10.19
31.94
46.41
51.25
48.56
43.34
40.76
43.76
52.36
64.59
78.23
92.07
105.99
120.16
133.94
145.34
151.50
149.62
138.08
117.28
89.81
59.91
32.38
11.14
-2.03
-8.13
-10.49
-13.41
-20.21
-31.51
-44.81
-55.44
-58.81
-52.77
-39.24
-24.38
-17.10
-25.71
-54.41
-101.18
-157.77
-212.02
-251.68
-268.18
-259.48
-230.23
-189.71
-148.62
-115.89
-96.55
-90.64
-93.06
-94.54
-85.52
-59.92
-17.78
33.98
83.07
115.96
123.15
103.51
66.55
27.50
0.74
-5.99
6.07
28.40
50.50
65.72
74.66
84.89
103.26
129.99
157.59
174.79
172.59
148.83
109.01
54.65
-5.46
-59.17
-96.89
-115.75
-116.48
-99.66
-65.54
-16.79
39.65
94.97
139.37
165.23
169.82
156.00
130.08
99.22
69.21
43.64
25.00
13.15
5.64
-0.70
-7.80
-15.87
-23.23
-27.46
-25.74
-15.61
2.64
25.35
46.51
60.35
63.09
55.22
41.29
28.01
21.29
23.43
32.25
42.64
49.63
49.43
41.43
26.98
8.20
-12.74
-33.68
-51.79
-63.46
-58.17
-29.99
21.24
88.13
156.72
210.28
234.72
223.30
178.37
110.06
31.29
-45.47
-111.47
-163.00
-200.48
-226.88
-245.81
-260.56
-273.61
-288.15
-307.08
-332.56
-364.98
-401.82
-437.49
-464.16
-474.46
-463.93
-433.32
-387.52
-333.43
-276.84
-220.47
-164.37
-108.62
-56.51
-15.55
4.74
-1.87
-33.66
-79.82
-123.89
-150.49
-151.46
-128.44
-90.21
-47.02
-4.94
36.40
81.65
135.00
196.06
258.75
313.68
352.56
371.68
372.98
362.44
347.12
332.70
322.38
317.28
317.03
320.24
324.29
325.33
319.27
303.45
278.03
246.03
211.73
178.46
147.62
118.56
89.86
61.20
34.12
10.99
-6.70
-19.92
-31.95
-45.80
-62.89
-82.51
-101.74
-116.28
-122.63
-119.26
-107.93
-93.14
-79.40
-70.96
-71.98
-85.35
-110.96
-145.54
-181.97
-211.53
-225.89
-217.56
-183.05
-125.57
-53.98
20.66
87.61
140.48
177.23
189.62
176.32
147.20
116.86
94.43
85.81
85.37
88.91
94.35
100.96
106.35
109.78
109.78
105.07
96.55
86.64
79.26
76.34
76.38
76.39
72.86
62.57
44.53
20.85
-5.09
-29.82
-52.17
-73.02
-92.76
-110.16
-123.33
-130.60
-131.39
-127.26
-120.78
-115.02
-112.25
-112.76
-115.27
-118.47
-121.82
-125.57
-130.42
-136.62
-143.84
-150.92
-155.76
-155.71
-148.51
-133.01
-109.67
-80.54
-48.51
-16.74
11.98
35.41
51.72
59.32
57.32
46.26
28.88
10.20
-3.89
-8.85
-3.15
11.40
30.78
50.70
68.12
81.80
92.09
99.15
101.73
97.57
85.26
65.86
43.12
21.55
3.87
-10.00
-23.06
-39.47
-61.43
-87.20
-111.70
-128.99
-135.83
-132.63
-121.44
-104.30
-82.28
-55.37
-23.52
11.92
48.06
82.26
108.34
123.23
130.77
138.45
151.27
168.92
187.09
203.46
215.47
223.11
229.41
237.94
249.98
263.74
275.81
279.41
271.50
251.44
221.44
185.64
147.80
109.32
69.50
27.47
-15.93
-56.70
-90.31
-111.51
-115.22
-98.37
-61.79
-10.77
45.99
98.32
137.52
155.27
148.86
122.47
85.03
46.22
13.52
-8.51
-17.81
-14.30
-5.89
-0.98
-4.58
-16.71
-33.87
-50.57
-60.74
-60.22
-49.09
-41.23
-50.54
-83.07
-134.76
-196.46
-259.31
-317.50
-368.96
-414.69
-468.27
-538.91
-624.97
-715.39
-798.63
-868.76
-925.95
-974.17
-948.47
-819.31
-609.41
-378.27
-175.63
-20.32
90.66
167.99
223.42
267.78
298.85
314.82
318.13
314.08
305.55
292.15
273.55
252.80
235.56
218.09
195.99
167.86
136.49
106.11
80.68
62.88
54.11
53.79
53.64
46.42
30.04
7.78
-16.96
-38.58
-54.33
-62.63
-61.79
-52.27
-33.28
-3.62
36.67
84.22
132.79
174.83
205.18
222.19
226.20
219.66
205.34
185.68
162.62
138.16
113.81
90.95
69.90
46.65
21.24
-5.36
-32.08
-57.00
-76.75
-89.71
-94.69
-91.87
-82.79
-69.28
-52.46
-33.06
-10.59
16.76
51.01
93.11
141.65
193.21
236.94
264.42
270.34
254.95
224.52
189.33
160.07
144.23
144.40
158.12
180.24
202.32
215.31
212.22
190.43
152.07
103.35
52.65
3.60
-36.31
-62.35
-74.91
-80.99
-86.82
-95.93
-109.45
-126.33
-143.88
-157.39
-163.10
-158.66
-143.20
-117.06
-82.57
-44.20
-8.01
19.56
34.11
33.50
19.10
-4.31
-29.93
-51.83
-66.79
-74.89
-78.31
-79.49
-80.80
-84.13
-91.14
-103.38
-121.93
-145.94
-171.90
-193.88
-205.41
-202.23
-184.20
-155.25
-121.66
-89.03
-59.96
-34.52
-11.32
10.88
32.51
53.57
74.48
96.32
120.78
149.09
179.54
207.84
228.49
237.52
234.25
221.38
202.89
177.92
146.70
110.50
72.92
38.59
11.65
-6.05
-16.26
-26.15
-41.80
-66.26
-98.80
-134.52
-166.97
-191.33
-206.49
-209.90
-202.77
-185.59
-151.79
-97.55
-24.68
56.92
131.90
186.01
212.17
212.17
199.24
183.60
170.11
158.64
145.59
126.96
100.93
68.41
31.62
-5.20
-38.79
-67.34
-90.21
-107.79
-120.54
-128.76
-133.40
-135.59
-135.09
-130.63
-120.48
-103.79
-82.18
-59.62
-41.05
-31.25
-32.14
-40.98
-51.34
-55.62
-48.24
-28.28
-0.01
28.15
44.95
40.39
9.95
-43.87
-112.75
-185.76
-253.13
-308.14
-337.65
-332.80
-294.64
-234.61
-168.44
-109.20
-64.92
-38.26
-26.47
-22.50
-17.51
-5.08
17.45
48.49
82.99
114.88
140.17
159.31
171.00
176.69
178.04
176.30
172.40
167.20
162.08
158.97
159.88
166.27
178.72
196.51
217.98
240.45
259.54
269.53
264.64
241.48
201.04
149.33
94.82
45.32
5.16
-25.79
-49.94
-69.72
-85.75
-96.87
-101.36
-99.38
-93.94
-89.54
-90.34
-96.72
-106.77
-118.48
-131.80
-148.28
-169.12
-193.24
-216.01
-231.62
-233.48
-219.25
-191.67
-156.26
-116.44
-70.65
-14.79
54.12
132.83
214.81
290.96
354.05
401.13
434.75
460.65
482.50
500.63
492.69
444.58
359.76
260.10
170.22
103.92
65.75
44.06
28.67
13.02
-2.64
-16.02
-25.05
-31.75
-40.37
-53.78
-72.63
-94.39
-116.04
-132.57
-140.07
-137.17
-128.33
-120.78
-120.14
-129.23
-147.67
-174.68
-208.32
-247.14
-274.55
-279.87
-262.86
-232.36
-198.86
-167.59
-139.15
-111.28
-81.55
-56.65
-37.70
-26.31
-22.08
-21.64
-20.21
-14.70
-4.89
6.37
21.44
35.30
41.62
37.02
21.95
-1.38
-31.65
-69.45
-116.41
-160.78
-193.25
-209.70
-212.76
-208.35
-200.77
-190.61
-175.03
-149.52
-110.30
-59.68
-4.61
46.33
86.12
111.61
124.21
128.56
129.76
130.39
127.25
114.88
90.11
55.56
19.52
-7.70
-18.69
-12.40
5.85
26.20
40.20
44.42
40.95
34.51
28.90
24.92
20.84
14.79
6.26
-2.66
-8.13
-6.34
4.69
23.03
44.22
61.67
69.20
63.68
46.77
24.51
4.73
-6.48
-7.27
0.06
10.79
20.82
28.67
35.59
43.34
53.00
63.58
72.77
78.78
81.24
81.44
81.35
82.56
84.80
86.07
83.65
74.18
55.60
27.50
-8.41
-48.14
-85.66
-114.65
-129.15
-128.01
-114.82
-96.51
-80.71
-72.77
-73.86
-81.05
-89.93
-96.80
-100.34
-101.29
-100.96
-100.04
-98.01
-93.99
-85.92
-73.09
-55.78
-35.33
-13.43
8.44
29.16
48.21
65.43
81.38
96.12
109.59
121.64
132.69
144.00
157.08
172.39
186.08
194.34
191.81
174.65
143.26
103.15
63.28
32.14
14.44
9.72
13.84
21.10
27.27
30.82
32.34
33.24
34.38
35.39
35.65
34.77
32.46
28.60
23.33
15.49
3.50
-14.05
-37.15
-63.11
-86.59
-101.48
-102.78
-90.69
-70.03
-48.30
-32.30
-25.54
-27.12
-33.18
-39.50
-43.62
-45.46
-46.23
-46.96
-47.69
-47.75
-46.41
-43.77
-40.75
-38.52
-38.25
-40.13
-43.60
-47.31
-50.06
-51.31
-51.28
-50.83
-50.95
-52.32
-54.92
-58.02
-60.40
-60.98
-59.10
-54.70
-48.23
-40.57
-32.32
-23.88
-15.47
-7.17
0.73
7.81
13.50
17.24
18.66
17.76
14.87
10.62
5.90
1.43
-2.21
-4.71
-5.93
-5.97
-5.03
-3.49
-1.76
-0.14
0.95
1.21
0.38
-1.55
-4.43
-7.96
-11.70
-15.12
-17.42
-17.97
-16.26
-12.01
-4.94
5.05
17.83
32.93
49.68
67.48
85.24
101.69
115.46
125.60
131.43
132.63
129.18
121.28
109.74
95.07
77.68
57.75
35.84
12.55
-11.48
-35.59
-61.42
-87.49
-112.04
-132.45
-148.63
-160.77
-169.12
-173.81
-174.77
-171.68
-163.66
-150.39
-131.89
-109.60
-84.92
-59.09
-32.74
-5.47
23.91
56.70
92.63
129.42
162.96
188.98
204.12
206.70
196.82
175.68
145.27
107.95
67.04
26.89
-7.52
-32.35
-46.51
-52.19
-53.58
-54.60
-57.02
-59.94
-61.01
-58.46
-52.66
-46.17
-42.26
-42.72
-46.55
-50.23
-49.55
-41.79
-27.16
-8.69
9.23
23.00
31.30
35.41
38.13
42.18
48.88
57.77
67.20
75.28
80.72
83.11
82.28
77.85
68.98
54.86
35.70
13.51
-7.97
-24.38
-32.30
-30.66
-21.02
-6.86
7.94
20.52
29.68
35.70
39.60
42.59
45.69
49.72
55.20
62.26
70.48
79.07
87.32
94.96
102.34
110.10
118.56
127.44
135.96
143.30
148.99
152.91
154.90
154.20
149.26
138.07
119.02
91.87
58.19
21.14
-15.53
-48.62
-76.26
-97.99
-114.08
-124.72
-129.51
-127.53
-118.20
-102.14
-81.69
-60.60
-42.91
-31.73
-28.56
-33.46
-45.62
-64.04
-87.28
-112.69
-135.61
-149.80
-149.56
-132.84
-103.78
-72.34
-50.45
-46.36
-60.13
-83.25
-102.77
-107.83
-94.70
-68.00
-37.41
-12.24
2.78
8.61
9.63
10.16
12.28
15.69
18.93
21.12
22.67
25.07
29.99
38.21
48.43
57.66
62.43
59.86
49.00
31.59
11.68
-5.64
-16.32
-20.03
-19.60
-19.05
-22.69
-33.59
-53.05
-80.45
-113.30
-147.89
-181.74
-213.10
-240.16
-262.04
-278.23
-287.74
-288.04
-275.17
-244.86
-196.27
-131.26
-52.48
36.21
130.58
226.63
316.45
389.91
450.26
501.89
542.15
569.91
584.28
584.90
572.29
548.46
515.75
476.32
429.53
373.91
310.09
240.25
167.81
92.98
18.85
-51.36
-114.90
-171.53
-223.89
-273.48
-319.15
-357.79
-386.16
-398.67
-394.05
-374.99
-348.12
-321.23
-300.09
-287.77
-284.40
-287.68
-292.94
-295.31
-290.16
-274.57
-247.84
-211.17
-167.80
-122.02
-77.61
-36.21
1.96
37.56
70.41
98.60
118.83
127.64
122.97
105.51
78.69
46.84
13.63
-19.18
-51.65
-84.40
-117.44
-149.60
-178.93
-203.57
-222.80
-236.86
-246.33
-251.34
-251.27
-245.18
-232.48
-213.42
-189.01
-160.62
-129.45
-96.38
-62.15
-27.41
7.24
41.87
77.65
117.02
162.99
217.85
281.68
351.46
421.19
483.08
529.36
554.23
555.20
533.50
493.14
439.15
375.57
304.16
224.59
136.42
41.50
-54.52
-142.97
-214.91
-264.53
-291.35
-299.74
-296.11
-285.58
-270.19
-249.64
-223.64
-193.76
-163.45
-136.24
-113.78
-95.16
-78.50
-63.27
-51.81
-48.42
-56.52
-75.67
-100.42
-121.90
-131.61
-125.53
-106.10
-81.12
-60.11
-49.71
-50.61
-57.34
-60.84
-52.72
-28.83
9.49
57.09
108.02
158.23
206.22
251.71
293.78
329.85
356.50
371.48
375.61
372.94
369.22
369.33
375.17
385.07
394.89
399.91
396.59
383.29
360.08
328.04
288.26
241.26
186.84
124.07
51.76
-31.13
-124.64
-226.95
-333.39
-435.99
-524.51
-588.64
-621.01
-619.69
-589.12
-538.47
-478.55
-418.36
-362.93
-313.31
-267.99
-225.11
-183.77
-144.19
-107.05
-72.89
-41.92
-14.42
8.75
26.13
36.35
39.03
35.28
27.76
19.71
13.94
11.93
13.64
17.91
23.32
28.92
34.68
41.19
48.90
57.51
65.94
72.98
78.47
84.00
92.62
107.28
128.86
154.82
179.56
196.37
200.16
189.58
167.25
138.31
107.94
79.32
52.93
27.47
1.54
-24.92
-50.16
-71.33
-85.70
-91.66
-89.03
-78.49
-60.80
-36.28
-5.27
31.04
69.62
105.62
133.42
148.58
149.53
138.31
119.57
98.67
79.60
63.78
50.44
37.87
24.92
11.73
-0.45
-10.24
-16.93
-20.83
-22.92
-24.35
-26.04
-28.75
-33.14
-39.89
-49.37
-61.31
-74.67
-87.85
-99.20
-107.52
-112.36
-113.97
-113.15
-110.96
-108.34
-105.77
-102.93
-98.58
-90.79
-77.59
-57.95
-32.40
-3.15
26.48
53.07
74.03
88.12
95.46
97.20
95.08
91.04
86.95
84.30
83.98
86.12
90.26
95.61
101.49
107.61
113.99
120.65
127.30
133.30
137.95
141.12
143.44
146.11
150.07
155.15
159.74
161.10
156.58
144.72
125.94
102.21
76.30
50.89
28.08
9.47
-3.75
-10.78
-11.60
-7.39
-0.46
6.30
10.46
10.88
8.04
3.57
-0.83
-4.36
-7.70
-12.95
-22.73
-39.16
-63.23
-94.43
-131.36
-172.80
-218.43
-268.72
-323.40
-379.69
-431.17
-468.75
-483.54
-470.45
-430.55
-370.73
-300.95
-230.39
-164.67
-104.88
-48.85
6.62
63.66
122.36
180.84
236.15
285.44
327.06
360.96
388.48
411.26
429.77
442.86
448.44
445.04
433.29
416.02
396.92
378.57
361.28
343.48
323.22
299.66
273.40
245.68
217.07
186.61
152.18
111.66
64.04
9.93
-48.70
-108.81
-166.58
-217.80
-258.47
-285.80
-299.19
-300.74
-294.68
-285.91
-278.29
-273.30
-269.67
-264.24
-253.70
-236.44
-213.65
-188.88
-166.35
-148.67
-135.39
-123.16
-107.56
-85.65
-57.82
-27.99
-2.22
13.57
15.75
4.16
-17.36
-41.65
-59.95
-64.47
-51.36
-22.56
14.52
49.76
73.84
81.93
74.65
56.68
33.83
10.62
-10.36
-27.61
-39.56
-45.18
-43.88
-36.38
-24.79
-11.92
0.08
10.55
20.71
32.86
47.56
63.70
78.15
86.42
83.89
67.03
34.37
-12.67
-69.97
-133.71
-200.11
-266.34
-330.54
-391.35
-447.70
-498.62
-542.91
-566.84
-558.81
-511.88
-427.93
-317.91
-197.35
-80.75
21.95
106.35
172.46
220.92
253.51
272.42
280.23
279.74
274.04
264.25
250.09
230.38
202.30
164.02
116.41
64.03
16.08
-17.55
-31.18
-25.78
-8.36
10.52
22.07
22.30
12.64
-1.96
-16.72
-29.23
-39.34
-47.96
-56.06
-63.22
-68.13
-69.89
-66.98
-59.05
-47.10
-32.82
-18.10
-4.76
6.44
15.58
23.67
32.43
43.29
56.82
72.56
89.14
104.76
118.52
130.45
141.91
155.31
173.22
197.95
231.02
272.66
317.81
359.92
390.47
400.72
384.71
342.21
280.04
210.38
146.42
97.13
64.44
42.78
22.40
-5.78
-46.33
-97.77
-153.62
-205.11
-244.10
-264.96
-266.16
-249.83
-220.54
-183.82
-144.92
-108.48
-78.49
-58.44
-50.62
-55.13
-68.69
-84.77
-95.39
-94.16
-78.84
-51.95
-19.42
12.17
37.57
53.86
60.22
57.28
46.61
30.51
11.80
-6.78
-23.34
-37.35
-49.48
-60.83
-71.97
-82.47
-91.35
-97.69
-101.25
-102.58
-102.53
-101.68
-100.00
-96.96
-91.95
-84.71
-75.60
-65.51
-55.59
-46.76
-39.52
-33.88
-29.63
-26.41
-23.77
-20.83
-16.16
-7.98
5.36
24.48
48.56
75.24
101.24
123.05
137.84
143.84
140.57
128.88
110.97
90.21
70.56
55.48
46.70
43.46
42.68
40.17
32.39
17.91
-1.92
-23.39
-41.59
-52.02
-51.91
-41.01
-21.63
1.96
24.75
42.34
52.15
53.93
49.42
41.25
31.70
21.78
11.34
-0.27
-13.28
-27.12
-40.58
-52.68
-63.23
-72.99
-83.12
-94.21
-105.64
-115.66
-122.19
-123.98
-121.27
-115.57
-108.43
-100.34
-90.17
-76.13
-57.25
-34.54
-10.73
11.30
30.19
46.99
64.27
84.34
107.60
132.19
154.97
173.02
184.43
188.12
183.11
168.12
142.37
106.79
64.95
22.47
-14.72
-42.55
-59.87
-68.37
-71.26
-71.83
-72.46
-74.41
-78.04
-83.00
-88.34
-92.48
-93.43
-89.37
-79.14
-62.58
-40.67
-15.49
9.92
31.71
45.88
49.42
41.62
25.01
4.97
-12.09
-21.28
-21.19
-14.10
-4.42
3.86
9.11
12.40
16.29
23.00
33.25
46.07
59.57
71.54
79.64
81.05
72.64
52.08
19.57
-20.90
-62.15
-96.69
-120.14
-133.37
-141.59
-150.75
-163.33
-176.24
-181.77
-171.35
-139.73
-87.56
-21.24
49.27
113.60
163.53
194.57
206.34
202.15
187.98
170.85
157.20
151.49
155.57
168.60
187.61
207.99
224.35
231.62
226.38
208.06
179.19
144.61
109.78
79.06
54.63
36.34
22.41
10.69
-0.19
-10.20
-17.89
-21.37
-19.59
-13.56
-6.55
-3.06
-6.92
-19.47
-38.89
-60.99
-81.19
-96.47
-106.21
-111.61
-114.12
-114.08
-110.44
-101.55
-86.56
-66.37
-43.67
-22.09
-4.85
6.07
10.07
7.45
-1.25
-15.48
-34.31
-55.73
-76.16
-90.90
-95.58
-88.22
-70.57
-48.13
-28.21
-17.08
-17.45
-27.56
-42.37
-55.99
-64.21
-65.78
-62.18
-56.22
-50.59
-46.87
-45.45
-45.94
-47.66
-49.79
-51.59
-52.40
-51.72
-49.32
-45.34
-40.27
-34.83
-29.76
-25.55
-22.07
-18.52
-13.54
-5.89
4.72
17.05
28.40
35.65
36.68
31.50
22.54
13.66
8.43
8.49
12.81
18.23
21.07
18.85
11.57
1.70
-6.82
-10.18
-6.00
6.05
24.38
46.30
68.72
88.74
103.98
112.90
115.28
112.53
107.50
103.51
102.86
105.68
109.79
111.72
108.38
98.50
82.91
63.80
43.45
23.28
3.74
-15.14
-33.00
-48.84
-61.33
-69.35
-72.50
-71.17
-66.31
-59.04
-50.32
-40.76
-30.75
-20.55
-10.61
-1.66
5.24
8.98
8.69
4.33
-3.25
-12.28
-20.66
-26.57
-29.04
-28.15
-24.79
-20.22
-15.63
-11.95
-9.79
-9.70
-12.00
-16.78
-23.69
-31.88
-40.27
-47.83
-54.01
-58.86
-63.00
-67.20
-72.17
-78.27
-85.48
-93.36
-100.97
-106.96
-109.79
-108.26
-102.06
-92.16
-80.56
-69.61
-61.03
-55.35
-51.78
-48.82
-45.07
-39.85
-33.50
-27.16
-22.28
-20.22
-21.71
-26.58
-33.60
-40.59
-45.02
-44.74
-38.81
-27.81
-13.72
0.72
12.95
21.26
25.14
25.14
22.54
18.88
15.57
13.65
13.68
15.72
19.47
24.41
30.11
36.27
42.72
49.25
55.40
60.31
62.80
61.67
56.04
45.65
31.02
13.41
-5.32
-22.91
-37.11
-46.04
-48.68
-45.15
-36.83
-26.02
-15.21
-6.23
0.32
5.10
9.51
14.66
20.66
26.41
30.06
29.96
25.47
17.24
6.90
-3.88
-13.98
-23.29
-32.32
-41.63
-51.13
-59.85
-66.06
-67.90
-63.98
-53.91
-38.39
-19.03
2.02
22.46
40.08
53.09
60.35
61.70
58.19
52.00
45.89
42.46
43.27
48.28
55.91
63.75
69.35
71.12
68.70
62.96
55.54
48.24
42.51
39.04
37.67
37.55
37.42
36.04
32.62
27.20
20.92
15.73
13.62
15.59
20.89
26.98
30.54
29.01
21.88
11.01
-0.33
-9.05
-13.75
-15.05
-14.84
-14.88
-15.73
-16.66
-16.54
-14.90
-12.58
-11.40
-13.20
-18.82
-27.54
-37.35
-45.78
-50.85
-51.72
-48.82
-43.61
-38.03
-34.10
-33.40
-36.82
-44.40
-55.35
-67.92
-79.54
-87.08
-87.58
-79.39
-63.16
-42.22
-21.63
-6.27
1.27
1.80
-0.97
-2.47
0.41
7.97
17.91
26.97
32.76
34.81
34.37
33.23
32.53
32.18
31.13
28.16
22.77
15.54
7.95
1.73
-1.85
-2.49
-0.74
2.51
6.78
12.28
19.65
29.22
40.38
51.55
60.86
67.09
70.37
71.90
73.16
74.79
76.08
75.26
70.55
61.08
47.42
31.33
15.03
0.48
-11.02
-18.91
-23.34
-25.00
-24.98
-24.57
-25.03
-27.35
-31.99
-38.84
-47.19
-56.01
-64.25
-71.13
-76.33
-80.00
-82.56
-84.22
-84.58
-82.46
-76.09
-63.84
-45.07
-20.82
6.15
31.96
52.87
66.52
72.74
73.55
72.23
71.92
74.38
79.40
85.16
89.26
89.97
86.91
80.91
73.35
65.21
56.69
47.47
37.41
27.12
17.92
11.16
7.37
5.82
4.74
2.11
-3.41
-12.03
-22.92
-34.82
-46.60
-57.65
-67.79
-77.05
-85.44
-92.85
-99.07
-103.78
-106.49
-106.30
-101.86
-91.53
-74.05
-49.29
-18.92
13.64
43.96
67.92
82.95
88.73
86.93
80.37
72.07
64.40
58.93
56.47
57.14
60.35
64.73
68.28
68.92
65.38
57.82
47.90
38.12
30.62
26.23
24.15
22.43
19.05
12.76
3.38
-8.59
-22.45
-37.68
-53.58
-69.04
-82.39
-91.78
-95.98
-95.12
-90.72
-85.05
-80.12
-76.74
-74.23
-70.68
-63.80
-51.79
-34.07
-11.46
13.98
39.51
62.44
80.58
92.51
97.57
95.70
87.30
73.35
55.44
35.72
16.64
0.32
-11.98
-20.06
-24.63
-26.79
-27.40
-26.82
-24.84
-21.05
-15.19
-7.50
1.35
10.39
18.69
25.43
30.04
32.16
31.72
28.90
24.21
18.44
12.62
7.89
5.27
5.35
7.89
11.59
14.16
12.87
5.65
-7.99
-26.34
-45.83
-62.31
-72.60
-75.54
-72.23
-65.32
-57.82
-52.01
-48.82
-47.71
-46.94
-43.95
-36.02
-21.05
1.50
29.86
60.01
86.58
104.46
110.66
105.32
91.67
74.74
59.42
48.89
43.77
42.58
42.74
41.75
37.97
30.88
20.86
9.03
-3.10
-13.86
-21.66
-25.39
-24.68
-20.05
-12.76
-4.42
3.31
9.03
11.66
10.46
5.10
-4.15
-16.22
-29.34
-41.44
-50.81
-56.77
-59.91
-61.75
-63.87
-66.86
-69.77
-70.23
-65.57
-54.10
-36.08
-13.72
9.78
31.49
49.80
64.42
75.82
84.33
89.81
91.82
90.33
86.28
81.45
77.78
76.35
76.66
76.83
74.45
67.96
57.48
44.95
33.11
24.28
19.18
16.75
15.05
12.37
8.17
2.92
-2.66
-8.67
-16.37
-27.60
-43.65
-64.08
-86.47
-107.10
-122.07
-128.58
-125.63
-114.12
-96.47
-75.98
-56.14
-39.98
-29.55
-25.52
-27.03
-31.85
-36.73
-38.03
-32.57
-18.34
4.83
35.15
69.21
102.71
131.36
151.63
161.35
159.86
148.09
128.46
104.36
79.56
57.33
39.77
27.58
20.35
17.04
16.40
17.24
18.34
18.49
16.58
11.89
4.32
-5.56
-16.72
-27.87
-37.73
-45.13
-49.21
-49.59
-46.67
-41.61
-36.14
-32.02
-30.37
-31.16
-33.21
-34.55
-33.24
-28.27
-20.11
-10.65
-2.57
1.69
0.91
-4.53
-12.89
-21.91
-29.82
-35.92
-40.62
-44.99
-50.08
-56.52
-64.38
-73.19
-81.98
-89.34
-93.49
-92.72
-86.18
-74.59
-60.56
-48.09
-41.14
-42.07
-50.54
-63.45
-76.07
-83.71
-83.12
-73.22
-54.86
-30.10
-1.42
28.66
57.65
83.02
102.33
113.56
115.71
109.19
95.82
78.48
60.36
44.21
31.93
24.39
21.63
23.18
28.32
36.16
45.58
55.17
63.26
68.18
68.62
64.11
55.25
43.69
31.79
21.97
15.98
14.30
16.06
19.23
21.44
20.81
16.70
9.88
2.20
-4.13
-7.39
-6.87
-2.85
3.72
11.75
20.37
29.04
37.41
45.09
51.63
56.57
59.63
60.87
60.65
59.58
58.23
56.96
55.74
54.17
51.52
47.07
40.40
31.80
22.36
13.76
7.84
5.89
8.27
14.30
22.73
32.22
41.93
51.69
61.71
71.94
81.56
88.77
91.20
86.76
74.53
55.29
31.42
6.20
-17.18
-36.50
-50.88
-60.64
-66.92
-71.04
-74.05
-76.45
-78.18
-78.83
-78.11
-76.33
-74.66
-74.98
-79.16
-88.24
-101.82
-118.03
-134.19
-147.57
-156.00
-158.04
-152.93
-140.50
-121.47
-97.71
-72.15
-48.24
-28.88
-15.62
-8.43
-6.25
-7.84
-12.32
-19.17
-27.65
-36.25
-42.71
-44.69
-40.79
-31.33
-18.48
-5.52
4.32
9.02
8.46
4.35
-0.57
-3.57
-2.86
1.93
9.95
19.79
30.27
40.90
52.08
64.69
79.52
96.66
115.08
132.56
146.08
152.67
150.31
138.81
120.00
97.40
75.10
56.52
43.42
35.66
31.47
28.47
24.56
18.55
10.28
0.33
-10.49
-21.43
-31.82
-40.95
-48.00
-52.16
-53.05
-50.94
-46.82
-41.93
-37.19
-32.65
-27.59
-20.88
-11.76
-0.44
11.75
22.67
30.01
31.95
27.61
17.24
2.09
-15.80
-34.03
-50.13
-62.11
-68.93
-70.74
-68.79
-64.87
-60.43
-55.83
-49.95
-40.61
-25.44
-3.00
26.37
60.31
94.84
125.30
147.48
158.79
159.03
150.50
137.30
124.01
114.35
110.36
112.57
120.75
134.65
154.11
178.37
204.99
229.41
245.57
247.57
231.58
197.32
148.26
90.75
32.17
-21.03
-64.84
-98.28
-122.85
-141.06
-154.90
-164.86
-170.07
-169.55
-163.49
-153.93
-144.19
-137.53
-135.67
-138.27
-143.48
-149.11
-153.68
-156.73
-158.47
-159.02
-157.94
-154.25
-146.94
-135.63
-121.01
-104.84
-89.38
-76.79
-68.36
-64.21
-63.35
-64.11
-64.66
-63.31
-58.63
-49.60
-35.85
-17.93
2.53
23.12
41.37
55.48
64.78
69.45
70.00
66.81
60.06
50.18
38.27
26.24
16.22
9.70
6.86
6.49
6.51
5.05
1.16
-4.96
-12.21
-19.39
-25.67
-30.98
-35.69
-40.21
-44.34
-46.86
-45.45
-37.38
-20.48
5.86
40.08
78.56
116.34
148.30
170.24
179.72
176.36
161.65
138.56
110.83
82.41
56.72
36.06
21.23
11.49
5.08
-0.16
-5.94
-12.92
-20.56
-27.28
-30.98
-29.84
-23.00
-10.94
4.50
20.54
34.29
43.58
47.61
47.08
43.84
39.99
37.10
35.50
34.40
32.38
28.27
21.84
13.90
5.75
-1.53
-7.71
-13.47
-19.95
-27.96
-37.55
-47.88
-57.62
-65.49
-70.59
-72.33
-70.53
-65.50
-58.48
-51.85
-48.72
-51.81
-62.09
-78.02
-95.85
-111.04
-119.91
-120.85
-114.50
-102.92
-88.45
-72.79
-56.59
-39.75
-21.87
-2.87
16.67
35.41
51.58
63.51
70.22
71.77
69.29
64.73
60.28
57.85
58.56
62.52
68.83
75.89
81.87
85.35
85.65
82.67
76.52
67.17
54.52
39.02
22.23
6.89
-3.94
-8.24
-6.17
-0.36
5.05
6.05
0.30
-11.98
-28.45
-45.70
-60.70
-71.75
-78.78
-83.10
-86.66
-91.30
-98.11
-107.08
-117.04
-125.76
-130.41
-128.07
-116.58
-95.36
-65.99
-32.15
1.32
29.89
50.89
64.15
71.55
75.70
78.47
80.36
80.88
79.64
77.20
75.15
75.11
77.54
80.99
82.53
79.12
69.19
53.55
35.12
17.57
3.80
-5.21
-10.49
-14.20
-18.41
-24.16
-31.26
-38.71
-45.44
-50.99
-55.56
-59.69
-63.75
-67.53
-70.27
-71.11
-69.53
-65.63
-59.72
-51.47
-39.34
-20.92
5.47
38.89
74.72
105.68
124.55
127.34
115.21
93.77
70.33
50.67
37.02
28.40
22.35
16.98
11.77
7.19
3.69
1.17
-0.75
-2.15
-2.54
-1.17
2.18
6.78
10.97
12.91
11.22
5.55
-3.67
-15.55
-29.13
-43.47
-57.55
-70.20
-80.22
-86.70
-89.11
-87.35
-81.71
-72.71
-61.21
-48.44
-35.90
-24.99
-16.66
-11.06
-7.59
-5.16
-2.60
0.95
5.74
11.38
16.89
21.08
22.94
22.06
18.89
14.67
11.03
9.49
10.93
15.37
22.00
29.35
35.67
39.24
38.84
34.01
25.31
14.13
2.28
-8.66
-17.86
-25.35
-31.80
-37.95
-44.11
-49.88
-54.46
-57.02
-57.25
-55.54
-52.81
-50.19
-48.57
-48.35
-49.51
-51.78
-54.87
-58.55
-62.65
-66.82
-70.59
-73.42
-74.93
-75.07
-74.22
-72.94
-71.82
-71.18
-70.99
-70.99
-70.95
-70.89
-71.16
-72.18
-74.09
-76.45
-78.16
-77.80
-74.13
-66.74
-56.22
-43.95
-31.41
-19.51
-8.18
3.44
16.49
31.74
49.16
68.09
87.51
106.61
124.92
142.26
158.34
172.58
184.08
191.90
195.46
194.90
190.96
184.75
177.30
169.22
160.69
151.66
142.17
132.49
122.98
113.91
105.23
96.54
87.42
77.62
67.24
56.69
46.43
36.79
27.92
19.90
12.83
6.90
2.17
-1.62
-5.11
-9.16
-14.47
-21.21
-28.88
-36.49
-42.94
-47.37
-49.46
-49.35
-47.55
-44.60
-40.98
-36.96
-32.62
-27.92
-22.76
-17.02
-10.69
-3.81
3.52
11.21
19.16
27.16
34.86
41.79
47.43
51.48
54.01
55.45
56.43
57.48
58.76
59.90
60.25
59.15
56.30
51.89
46.62
41.35
36.71
32.90
29.61
26.35
22.72
18.67
14.46
10.51
7.13
4.34
1.91
-0.58
-3.63
-7.84
-13.83
-22.28
-33.70
-48.22
-65.33
-83.93
-102.58
-119.85
-134.80
-147.10
-156.95
-164.80
-170.91
-175.14
-176.95
-175.72
-171.19
-163.61
-153.76
-142.60
-130.93
-119.25
-108.01
-97.79
-89.41
-83.67
-80.76
-79.95
-79.67
-78.05
-73.65
-66.02
-55.54
-42.98
-29.02
-13.97
1.98
18.45
34.57
49.13
61.08
69.92
76.01
80.25
83.61
86.77
89.76
92.29
93.94
94.43
93.69
91.71
88.36
83.35
76.36
67.24
56.21
43.89
31.16
18.97
8.10
-0.91
-7.71
-12.22
-14.66
-15.59
-15.94
-16.82
-19.26
-23.78
-30.17
-37.38
-43.82
-47.88
-48.57
-45.96
-41.19
-36.01
-32.07
-30.35
-30.79
-32.52
-34.38
-35.37
-34.97
-33.11
-29.99
-25.81
-20.83
-15.36
-9.92
-5.18
-1.77
-0.02
0.12
-0.91
-2.55
-4.30
-5.84
-6.90
-7.05
-5.65
-1.99
4.31
12.82
22.01
29.52
32.76
29.85
20.32
5.41
-12.35
-29.78
-44.01
-53.02
-55.91
-52.85
-44.72
-32.95
-19.22
-5.39
6.75
15.80
20.99
22.48
21.23
18.71
16.38
15.31
16.06
18.70
22.97
28.26
33.52
37.24
37.75
33.83
25.32
13.35
-0.03
-12.71
-23.45
-32.27
-40.09
-47.98
-56.41
-65.05
-73.12
-79.97
-85.59
-90.49
-95.25
-99.98
-104.05
-106.27
-105.48
-100.96
-92.89
-82.25
-70.50
-59.17
-49.40
-41.67
-35.86
-31.45
-27.60
-23.59
-18.88
-13.16
-6.44
1.06
9.00
16.64
23.03
27.16
27.88
24.18
15.36
1.33
-16.71
-35.41
-49.70
-54.08
-44.71
-21.87
9.38
40.77
63.83
73.32
69.22
55.57
37.98
22.36
12.18
8.26
9.61
13.76
15.81
13.46
6.60
-2.72
-10.51
-11.32
-1.02
21.72
53.85
88.68
118.49
136.85
140.76
131.29
111.99
85.44
54.89
23.51
-5.62
-29.48
-46.13
-55.71
-60.49
-64.07
-68.81
-74.00
-76.64
-73.40
-63.32
-49.78
-39.71
-40.06
-53.91
-79.43
-108.02
-128.63
-132.79
-118.10
-88.52
-51.30
-13.02
22.73
54.79
82.55
103.46
113.46
109.53
92.52
68.48
47.07
37.18
42.48
59.51
78.97
90.65
88.67
74.53
55.95
42.99
42.95
57.49
82.78
112.09
139.16
160.84
177.83
193.51
211.65
233.74
257.57
277.47
286.24
278.27
252.17
211.63
163.83
116.86
76.46
45.20
23.16
9.56
4.03
6.39
15.02
25.28
30.61
24.91
6.45
-20.02
-44.54
-55.77
-45.84
-13.83
30.34
72.06
96.81
96.53
72.59
33.12
-12.39
-57.20
-98.30
-134.95
-166.13
-189.94
-204.24
-207.80
-201.62
-188.97
-173.66
-158.39
-144.16
-129.74
-112.50
-89.34
-57.69
-17.30
28.89
74.92
113.06
136.04
139.97
125.87
97.93
64.22
32.83
9.01
-5.82
-13.12
-15.27
-13.94
-10.15
-5.03
-0.29
1.62
-1.11
-8.25
-17.30
-24.83
-28.29
-27.57
-24.85
-23.06
-24.43
-29.43
-36.87
-44.91
-52.15
-58.12
-63.12
-67.69
-72.02
-76.00
-79.09
-80.34
-78.45
-71.83
-59.25
-40.60
-17.76
5.43
24.06
33.96
33.53
24.48
11.08
-1.88
-11.09
-15.90
-17.74
-18.66
-19.81
-20.89
-20.87
-19.27
-17.05
-16.46
-19.73
-27.58
-38.41
-48.80
-55.07
-55.02
-48.90
-39.25
-29.70
-23.30
-21.46
-23.71
-28.27
-32.99
-36.25
-37.36
-36.29
-33.04
-26.97
-16.67
-0.59
21.70
48.54
76.06
99.28
114.00
118.53
114.18
104.33
92.68
81.68
72.08
63.45
55.40
48.22
42.75
39.46
37.70
35.61
30.98
22.34
9.86
-4.68
-18.66
-29.83
-37.27
-41.64
-44.66
-48.18
-53.28
-59.90
-67.03
-73.27
-77.50
-79.25
-78.68
-76.56
-74.18
-73.26
-75.53
-81.86
-91.16
-100.33
-105.19
-102.49
-91.75
-75.76
-59.34
-46.57
-38.52
-32.27
-22.89
-6.81
15.34
38.13
53.21
52.77
32.54
-6.80
-58.98
-114.18
-161.27
-190.47
-195.33
-174.32
-131.07
-73.08
-9.34
53.53
112.41
168.00
223.02
280.48
341.50
404.67
466.56
515.74
541.00
533.81
492.21
422.40
337.31
250.91
173.60
110.28
61.49
26.71
4.99
-2.77
0.62
10.61
21.59
28.38
27.70
18.86
4.29
-12.11
-26.48
-36.60
-41.85
-43.47
-43.13
-42.55
-42.94
-44.30
-45.79
-46.09
-44.32
-40.05
-33.79
-26.78
-20.52
-16.19
-14.19
-14.31
-16.09
-19.23
-23.45
-28.54
-34.11
-39.63
-44.37
-47.54
-48.47
-46.81
-42.64
-36.39
-28.93
-21.41
-15.04
-10.67
-8.37
-7.35
-6.15
-3.35
1.89
9.34
17.73
25.25
30.07
30.90
27.19
19.18
7.93
-4.67
-16.16
-23.94
-26.18
-22.64
-15.03
-6.59
-0.92
-0.64
-6.44
-17.07
-30.17
-43.43
-55.43
-65.72
-74.32
-81.09
-85.39
-86.46
-83.98
-78.64
-72.11
-66.31
-62.56
-61.02
-60.84
-60.81
-60.21
-59.09
-58.06
-57.65
-57.89
-58.33
-58.48
-58.17
-57.39
-55.89
-52.70
-46.28
-35.40
-20.20
-2.57
14.19
26.55
32.08
30.03
21.41
8.30
-6.75
-21.30
-33.22
-40.95
-43.84
-42.44
-38.61
-35.04
-34.35
-38.28
-46.94
-58.95
-71.83
-82.78
-89.38
-90.08
-84.33
-72.53
-55.94
-36.49
-16.56
1.44
15.70
25.58
31.83
36.37
41.39
48.41
57.73
68.27
78.34
86.47
92.08
95.67
98.52
102.10
107.36
114.43
122.63
130.91
138.48
145.41
152.58
161.25
172.18
185.08
198.66
211.25
221.84
230.79
239.74
250.50
263.74
277.86
289.00
292.09
282.39
256.98
215.37
159.42
92.57
19.03
-56.85
-130.84
-198.81
-256.74
-300.93
-328.48
-338.09
-330.76
-310.13
-282.06
-253.51
-230.98
-219.04
-219.17
-229.45
-245.14
-259.94
-267.74
-264.39
-248.87
-223.60
-193.64
-164.74
-141.37
-125.18
-114.76
-106.86
-98.04
-86.19
-70.97
-53.43
-35.13
-17.62
-2.40
8.99
14.97
14.29
6.78
-6.20
-21.83
-36.47
-46.86
-51.05
-48.77
-41.38
-31.27
-21.06
-12.82
-7.71
-5.66
-5.58
-5.86
-5.03
-2.37
1.88
6.71
10.95
13.93
15.72
16.98
18.33
19.85
20.88
20.36
17.44
12.05
5.11
-1.93
-7.78
-11.94
-14.82
-17.42
-20.66
-24.97
-30.18
-35.79
-41.30
-46.54
-51.89
-58.03
-65.63
-74.83
-84.81
-93.70
-99.02
-98.51
-91.00
-76.86
-57.86
-36.53
-15.39
3.57
19.06
30.41
37.50
40.73
41.08
39.99
39.05
39.54
42.12
46.74
52.67
58.69
63.12
64.14
60.28
51.03
37.37
21.84
7.95
-1.07
-3.42
0.53
8.38
16.79
22.78
24.68
22.39
16.62
8.14
-2.72
-15.66
-29.83
-43.45
-54.27
-60.69
-62.69
-61.92
-60.72
-60.63
-61.41
-61.10
-57.25
-48.51
-35.56
-20.95
-8.02
0.58
4.07
3.79
2.38
2.38
4.85
8.75
11.54
10.77
5.86
-1.12
-6.30
-5.92
1.59
14.61
29.11
40.57
46.00
45.14
40.07
33.93
29.37
27.58
28.19
29.93
31.46
32.05
31.76
31.10
30.49
29.93
29.05
27.62
26.16
26.07
28.93
35.49
44.73
54.04
60.36
61.89
59.33
55.71
54.92
59.36
68.36
78.15
83.60
80.76
68.85
50.69
31.18
15.03
4.91
0.87
1.31
4.43
9.30
15.83
24.01
32.96
40.81
45.34
45.11
40.26
32.45
24.03
16.88
11.70
7.86
4.09
-0.67
-6.70
-13.50
-20.36
-26.93
-33.41
-40.26
-47.59
-54.74
-60.46
-63.51
-63.37
-60.48
-55.87
-50.51
-44.60
-37.70
-29.22
-19.07
-7.98
2.84
12.42
20.53
27.79
35.13
43.08
51.28
58.59
63.69
65.89
65.59
64.15
63.16
63.54
64.93
65.82
64.24
58.89
49.82
38.60
27.57
18.84
13.30
10.39
8.50
5.76
0.86
-6.69
-16.64
-28.39
-41.33
-54.90
-68.43
-80.89
-90.98
-97.43
-99.35
-96.68
-90.11
-80.86
-70.01
-58.08
-44.84
-29.67
-12.23
6.88
25.85
41.99
52.70
56.48
53.60
45.96
36.33
27.24
20.17
15.24
11.70
8.67
5.83
3.72
3.75
7.67
16.93
31.82
50.80
70.45
86.23
94.00
91.54
79.67
61.82
42.57
25.69
12.60
2.28
-7.65
-19.16
-32.59
-46.46
-58.46
-66.78
-70.92
-71.73
-70.59
-68.53
-65.72
-61.64
-55.72
-48.13
-39.68
-31.12
-22.27
-11.75
2.12
19.82
39.38
56.60
66.76
66.97
57.78
42.90
27.26
14.60
5.93
-0.19
-6.13
-13.29
-21.36
-28.80
-34.19
-37.37
-39.60
-42.86
-48.58
-56.75
-65.62
-72.39
-74.46
-70.60
-61.50
-49.35
-36.65
-25.12
-15.18
-6.29
2.03
9.52
15.08
17.52
16.57
13.40
10.25
9.33
11.61
16.18
20.70
22.48
19.75
12.39
1.95
-9.19
-18.73
-25.33
-28.79
-29.83
-29.44
-28.24
-26.38
-23.68
-20.06
-15.71
-10.84
-5.20
2.14
12.40
26.06
41.97
57.27
68.51
73.28
71.66
66.14
60.22
56.35
54.53
52.45
47.06
36.56
21.54
4.84
-10.03
-20.43
-25.55
-26.36
-24.74
-22.39
-20.22
-18.20
-15.65
-11.79
-6.14
1.30
10.05
19.47
29.19
39.28
50.15
62.00
74.25
85.28
92.82
94.86
90.72
81.70
70.69
61.04
55.13
53.31
53.91
54.13
51.30
44.05
32.68
18.89
4.98
-7.00
-15.91
-21.76
-25.48
-28.42
-31.83
-36.33
-41.83
-47.71
-53.12
-57.04
-58.24
-55.36
-47.29
-34.08
-17.60
-1.43
10.23
14.47
11.08
2.85
-5.84
-11.06
-11.25
-7.51
-2.59
0.90
1.72
0.18
-2.72
-6.28
-10.53
-15.93
-22.66
-30.16
-37.14
-42.23
-44.56
-44.19
-41.96
-38.98
-36.09
-33.62
-31.26
-28.37
-24.20
-18.23
-10.43
-1.49
7.16
13.57
15.88
13.12
5.78
-4.09
-13.59
-20.01
-21.83
-19.12
-13.27
-6.10
0.96
7.30
13.00
18.32
23.26
27.39
30.12
31.01
30.01
27.48
23.84
19.46
14.47
8.80
2.32
-4.80
-11.82
-17.28
-19.37
-16.83
-9.82
-0.44
7.87
11.74
9.61
2.55
-6.17
-12.84
-15.27
-13.85
-11.10
-9.97
-12.20
-17.40
-23.64
-28.66
-31.17
-31.25
-29.83
-27.83
-25.45
-22.09
-16.89
-9.51
-0.49
8.86
17.06
23.13
26.97
29.31
31.32
34.21
38.94
45.98
54.99
64.63
72.61
76.24
73.51
64.19
50.22
35.18
22.77
15.25
12.61
12.91
13.51
12.56
9.70
5.88
2.47
0.29
-0.91
-2.14
-4.69
-9.46
-16.79
-26.41
-37.78
-50.21
-63.02
-75.44
-86.47
-94.71
-98.24
-94.91
-83.11
-62.70
-35.78
-6.66
19.26
37.26
45.09
43.68
36.66
28.61
23.18
21.82
23.82
27.18
29.92
30.89
29.91
27.40
23.82
19.47
14.60
9.63
5.30
2.63
2.40
4.80
9.23
14.38
18.81
21.46
22.07
21.22
20.09
19.97
21.73
25.47
30.35
34.73
36.63
34.30
26.84
14.62
-0.67
-16.53
-30.30
-39.97
-44.69
-44.77
-41.30
-35.60
-28.69
-21.21
-13.46
-5.70
1.56
7.62
11.67
13.05
11.54
7.37
1.14
-6.40
-14.56
-22.77
-30.40
-36.59
-40.22
-40.19
-35.98
-28.13
-18.39
-9.14
-2.62
-0.09
-1.45
-5.67
-11.27
-16.93
-21.69
-24.79
-25.52
-23.42
-18.53
-11.66
-4.20
2.41
7.39
10.93
13.99
17.63
22.39
27.95
33.41
37.84
40.77
42.43
43.52
44.82
46.90
49.98
54.05
58.84
63.76
67.83
69.72
68.11
62.22
52.26
39.48
25.75
12.85
1.90
-6.79
-13.37
-17.95
-20.27
-19.85
-16.46
-10.61
-3.61
2.78
7.09
8.70
8.08
6.45
5.08
4.70
5.14
5.51
4.75
2.21
-1.93
-6.57
-10.10
-10.94
-8.01
-1.28
8.21
18.64
27.88
34.21
36.83
36.07
33.07
29.35
26.09
23.81
22.31
21.08
19.65
17.99
16.38
15.17
14.45
13.84
12.69
10.40
6.78
2.20
-2.53
-6.55
-9.27
-10.61
-10.99
-11.09
-11.48
-12.43
-13.89
-15.54
-17.09
-18.37
-19.47
-20.68
-22.41
-25.00
-28.68
-33.42
-38.88
-44.46
-49.41
-53.02
-54.92
-55.20
-54.39
-53.27
-52.59
-52.90
-54.43
-57.28
-61.42
-66.76
-73.04
-79.59
-85.30
-88.76
-88.73
-84.49
-76.24
-64.94
-52.01
-38.83
-26.27
-14.61
-3.67
6.79
16.75
25.75
33.09
38.08
40.30
39.80
37.00
32.51
27.09
21.52
16.76
13.75
13.19
15.09
18.49
21.56
22.26
19.24
12.46
3.17
-6.63
-15.13
-21.31
-25.12
-27.06
-27.52
-26.38
-23.07
-17.00
-8.07
3.00
14.85
25.87
34.77
41.04
44.96
47.31
49.02
50.63
52.16
53.12
52.77
50.51
46.19
40.26
33.73
27.96
24.20
23.15
24.59
27.34
29.66
29.90
27.26
22.21
16.31
11.53
9.42
10.43
13.86
18.21
21.98
24.14
24.45
23.18
20.72
17.37
13.23
8.49
3.54
-0.91
-4.16
-5.77
-5.85
-5.07
-4.37
-4.60
-6.20
-9.07
-12.64
-16.12
-18.85
-20.44
-20.87
-20.34
-19.21
-17.80
-16.38
-15.20
-14.51
-14.50
-15.24
-16.61
-18.24
-19.73
-20.69
-20.98
-20.68
-20.04
-19.41
-19.02
-19.02
-19.42
-20.12
-20.96
-21.73
-22.14
-21.99
-21.17
-19.74
-17.99
-16.33
-15.19
-14.86
-15.48
-17.06
-19.67
-23.51
-28.80
-35.63
-43.70
-52.27
-60.35
-67.10
-72.19
-75.94
-79.13
-82.63
-87.02
-92.55
-99.21
-106.94
-115.61
-124.89
-134.03
-141.82
-146.95
-148.32
-145.46
-138.44
-127.69
-113.78
-97.20
-78.54
-58.57
-38.20
-18.32
0.52
18.24
35.08
51.24
66.64
81.00
94.10
106.10
117.61
129.43
142.00
155.11
167.81
178.83
187.05
192.03
194.14
194.37
193.96
193.92
194.59
195.54
195.70
193.78
188.75
180.15
168.18
153.61
137.47
120.82
104.67
89.91
77.20
66.82
58.53
51.53
44.77
37.34
28.83
19.38
9.39
-0.91
-11.62
-23.05
-35.33
-48.03
-60.10
-70.25
-77.40
-81.11
-81.65
-79.76
-76.29
-71.88
-66.86
-61.34
-55.31
-48.74
-41.76
-34.71
-28.03
-22.07
-16.76
-11.58
-5.86
0.60
6.95
11.24
11.14
5.18
-6.24
-20.68
-34.55
-44.70
-49.72
-50.34
-48.73
-47.18
-47.03
-48.27
-50.03
-51.38
-51.90
-51.91
-52.19
-53.54
-56.42
-60.75
-65.98
-71.18
-75.32
-77.50
-77.13
-73.95
-67.87
-58.89
-47.16
-33.23
-18.36
-4.45
6.49
13.16
15.65
15.54
15.21
16.71
20.77
26.49
31.81
34.51
33.19
27.75
19.31
9.64
0.53
-6.76
-11.68
-14.30
-15.01
-14.24
-12.23
-9.14
-5.22
-0.99
2.88
5.90
8.16
10.33
13.33
17.62
22.71
27.18
29.29
27.85
22.89
15.65
7.88
0.99
-4.66
-9.69
-15.10
-21.46
-28.48
-35.03
-39.75
-41.69
-40.68
-37.36
-32.75
-27.81
-23.09
-18.68
-14.40
-10.15
-5.97
-2.07
1.47
4.95
9.04
14.48
21.53
29.59
37.27
42.91
45.35
44.48
41.24
37.17
33.57
30.91
28.76
26.21
22.41
17.07
10.46
3.24
-3.93
-10.59
-16.46
-21.35
-25.11
-27.54
-28.50
-27.91
-25.82
-22.33
-17.60
-11.79
-5.06
2.45
10.67
19.56
28.97
38.52
47.41
54.54
58.85
59.70
57.28
52.57
47.00
41.85
37.82
34.78
31.99
28.51
23.61
17.03
9.04
0.25
-8.62
-16.92
-24.20
-30.21
-34.91
-38.30
-40.45
-41.46
-41.63
-41.43
-41.33
-41.53
-41.69
-40.91
-38.10
-32.58
-24.49
-14.94
-5.54
2.22
7.61
10.78
12.45
13.36
13.85
13.83
13.03
11.40
9.23
7.06
5.35
4.28
3.66
3.14
2.42
1.44
0.36
-0.53
-0.94
-0.67
0.40
2.21
4.57
7.14
9.57
11.66
13.49
15.35
17.53
20.00
22.23
23.28
22.24
18.67
12.88
5.81
-1.36
-7.61
-12.41
-15.64
-17.32
-17.43
-15.92
-12.83
-8.57
-3.95
0.08
2.68
3.41
2.32
-0.15
-3.48
-7.19
-10.89
-14.26
-16.94
-18.60
-18.94
-17.75
-14.90
-10.43
-4.46
2.70
10.69
19.20
28.09
37.31
46.91
56.86
66.82
76.08
83.57
88.15
88.87
85.35
78.03
68.30
58.62
51.63
49.32
52.17
59.00
67.34
74.48
78.52
78.99
77.27
75.17
73.96
73.69
73.69
73.30
72.63
72.69
74.85
80.91
91.43
105.79
122.46
140.06
157.59
174.34
189.39
201.41
210.34
216.68
221.93
227.88
236.25
247.45
260.37
272.87
274.49
258.22
221.04
165.33
97.95
28.14
-36.01
-89.63
-131.31
-162.06
-182.70
-194.55
-197.12
-192.96
-184.99
-175.92
-167.74
-161.54
-157.67
-155.05
-152.52
-149.19
-144.88
-139.41
-132.99
-125.56
-117.26
-108.49
-99.31
-89.85
-80.15
-70.27
-60.02
-49.38
-38.69
-28.63
-19.94
-12.80
-7.21
-3.18
-1.11
-1.47
-4.52
-10.03
-17.04
-24.22
-30.30
-34.89
-38.61
-42.82
-48.45
-55.33
-62.17
-67.19
-69.16
-68.17
-65.51
-63.07
-62.39
-64.02
-67.60
-72.23
-77.01
-81.16
-83.89
-84.13
-80.74
-72.90
-60.75
-45.62
-29.75
-15.53
-4.71
2.07
5.27
6.04
5.65
5.05
4.73
4.76
5.08
5.60
6.31
7.16
8.05
8.72
8.92
8.44
7.29
5.70
4.04
2.63
1.61
0.94
0.57
0.63
1.48
3.62
7.42
12.86
19.48
26.57
33.53
40.08
46.38
52.84
59.92
67.83
76.54
85.77
95.30
105.04
114.95
124.98
134.92
144.23
152.07
157.37
159.18
156.85
150.32
140.01
126.55
110.53
92.30
72.18
50.75
29.17
9.00
-8.21
-21.64
-31.49
-38.85
-45.08
-51.01
-56.56
-60.96
-63.40
-63.72
-62.62
-61.34
-61.15
-62.80
-66.17
-70.41
-74.23
-76.43
-76.41
-74.53
-72.10
-70.99
-72.94
-78.88
-88.44
-100.23
-112.28
-122.79
-130.56
-135.13
-136.50
-134.91
-130.69
-124.35
-116.60
-108.35
-100.43
-93.33
-87.05
-81.22
-75.47
-69.61
-63.84
-58.51
-53.93
-50.14
-46.94
-44.12
-41.56
-39.33
-37.59
-36.44
-35.98
-36.26
-37.23
-38.64
-39.81
-39.72
-37.30
-31.97
-24.10
-14.95
-6.21
0.76
5.47
8.31
10.12
11.58
12.96
14.20
15.23
16.20
17.37
18.83
20.21
20.82
19.92
17.07
12.33
6.01
-1.57
-10.31
-20.22
-31.20
-42.94
-54.97
-66.92
-78.74
-90.80
-103.67
-117.71
-132.64
-147.30
-159.75
-167.72
-169.20
-163.00
-149.20
-129.28
-105.96
-82.53
-62.02
-46.45
-36.32
-30.45
-26.33
-20.85
-11.22
4.04
24.78
49.22
74.51
97.51
115.66
127.66
133.56
134.12
129.90
121.35
109.02
94.00
77.99
62.77
49.39
37.66
26.20
12.86
-3.06
-20.33
-36.67
-50.53
-62.43
-74.77
-90.09
-109.65
-133.60
-159.97
-186.27
-211.01
-234.30
-256.97
-279.51
-300.98
-320.31
-338.33
-356.06
-373.73
-389.51
-399.02
-396.30
-376.48
-337.96
-274.11
-187.57
-86.91
16.84
114.48
201.27
276.56
338.13
388.40
428.96
459.45
480.81
495.47
506.50
514.31
517.71
514.18
501.63
478.43
443.32
397.02
341.82
280.99
218.10
156.59
99.23
48.58
6.37
-26.51
-48.99
-60.28
-60.62
-52.00
-37.92
-22.70
-9.79
-1.17
2.83
3.26
1.42
-2.03
-6.98
-13.08
-18.94
-21.96
-19.46
-10.11
5.15
23.11
39.49
50.75
55.55
54.96
51.56
47.80
44.72
41.62
36.62
27.58
13.01
-7.53
-33.34
-62.32
-90.93
-114.35
-127.65
-127.51
-113.91
-90.74
-64.36
-41.04
-24.26
-13.76
-6.60
0.40
8.56
16.78
22.64
24.26
21.56
16.07
9.71
3.51
-2.87
-10.55
-20.27
-31.54
-42.55
-50.84
-54.16
-51.23
-42.05
-27.75
-10.32
7.83
24.26
37.06
45.27
49.33
51.01
52.81
56.74
62.95
69.06
70.82
64.01
46.80
21.15
-7.62
-33.12
-50.84
-59.93
-63.12
-64.60
-67.62
-73.02
-79.77
-86.64
-93.58
-101.56
-110.81
-119.24
-122.48
-116.09
-98.60
-73.26
-47.10
-27.63
-19.08
-20.48
-26.76
-31.93
-32.34
-28.05
-21.93
-17.35
-16.20
-18.41
-22.74
-28.07
-33.93
-40.45
-47.65
-55.02
-61.37
-65.07
-64.44
-58.34
-46.57
-30.31
-11.94
5.55
19.72
29.81
37.02
43.82
52.40
63.19
74.34
82.67
85.50
82.29
75.04
67.16
61.54
58.95
57.76
55.03
48.33
37.12
23.07
9.12
-2.02
-9.05
-12.49
-14.08
-15.73
-18.70
-23.38
-29.61
-37.24
-46.31
-56.44
-65.94
-71.23
-67.47
-50.50
-19.29
22.62
67.74
107.40
135.14
149.14
152.29
150.04
147.40
146.75
147.57
147.85
145.87
141.27
134.88
127.69
119.94
110.97
99.69
85.45
68.49
50.01
31.86
16.09
4.55
-1.48
-1.47
4.13
14.01
26.33
39.09
50.60
59.46
64.59
65.02
60.16
50.12
36.18
20.67
6.43
-4.29
-10.67
-13.61
-15.11
-17.23
-21.12
-26.64
-32.78
-38.36
-42.76
-46.17
-49.39
-53.20
-57.87
-63.03
-67.81
-71.36
-73.44
-74.42
-74.97
-75.23
-74.43
-71.04
-63.78
-52.74
-39.80
-27.98
-19.84
-16.00
-14.85
-13.54
-9.94
-4.01
2.14
5.64
4.67
-0.38
-7.29
-13.42
-17.19
-18.79
-19.73
-21.74
-25.69
-31.21
-36.84
-40.73
-41.30
-37.72
-30.19
-19.89
-8.76
1.07
8.05
11.85
13.48
14.85
17.67
22.50
28.43
33.64
36.56
36.87
35.60
34.41
34.35
35.13
35.24
32.96
27.52
19.74
11.58
5.06
1.08
-1.04
-3.18
-7.27
-14.36
-24.19
-35.50
-46.77
-56.91
-65.38
-72.10
-76.98
-79.72
-79.94
-77.41
-72.16
-64.39
-54.36
-42.48
-29.52
-16.93
-6.56
-0.02
2.22
1.43
0.15
1.04
5.52
13.00
21.22
27.47
29.94
28.33
23.60
17.06
9.61
1.54
-6.96
-15.20
-21.87
-25.39
-24.71
-19.95
-12.38
-3.80
4.24
11.01
16.59
21.60
26.84
33.11
41.21
51.64
64.12
77.05
87.47
91.99
88.19
76.01
58.05
38.57
21.68
9.67
2.52
-1.39
-3.84
-5.73
-7.00
-7.31
-6.87
-6.69
-8.05
-11.65
-17.05
-22.85
-27.52
-30.24
-31.35
-32.04
-33.67
-37.07
-42.11
-47.60
-51.51
-51.45
-45.37
-32.55
-14.33
5.72
22.80
32.63
33.33
26.21
15.18
4.74
-2.00
-4.56
-4.59
-4.47
-5.71
-8.34
-11.56
-14.72
-18.15
-22.90
-29.80
-38.48
-47.06
-52.84
-53.49
-48.23
-38.04
-25.09
-11.69
0.60
11.32
20.89
30.09
39.62
49.86
60.61
71.00
79.46
84.00
82.91
75.50
62.70
46.99
31.61
19.46
12.06
9.22
9.32
10.17
9.85
7.27
2.33
-4.38
-11.90
-19.33
-26.04
-31.76
-36.53
-40.61
-44.37
-48.20
-52.50
-57.58
-63.42
-69.29
-73.53
-73.70
-67.42
-53.56
-33.20
-9.72
12.30
28.78
37.84
40.34
39.04
36.98
35.91
35.71
34.92
32.00
26.33
18.37
9.23
-0.10
-9.12
-17.74
-25.74
-32.59
-37.39
-39.45
-38.61
-35.44
-30.96
-26.14
-21.60
-17.34
-12.86
-7.22
0.70
11.75
25.87
41.58
55.92
65.34
67.28
61.59
51.00
40.07
33.11
32.26
36.63
43.17
48.43
50.25
48.36
43.80
37.70
30.47
21.80
11.26
-0.98
-13.92
-26.15
-36.50
-44.53
-50.44
-54.69
-57.60
-59.16
-59.11
-57.04
-52.51
-45.15
-34.98
-22.88
-10.81
-1.45
2.81
1.08
-5.32
-13.24
-19.24
-21.28
-19.72
-16.86
-15.42
-16.90
-20.82
-25.40
-28.98
-31.08
-32.54
-34.68
-38.01
-41.77
-44.22
-43.80
-40.09
-34.15
-27.82
-22.69
-19.29
-16.89
-13.97
-8.91
-0.46
12.01
28.26
47.07
66.01
81.81
91.31
92.73
86.65
76.02
64.92
56.76
52.85
52.17
52.22
50.71
46.58
40.21
32.64
24.61
16.09
6.59
-4.10
-15.40
-25.96
-34.32
-39.66
-42.19
-42.93
-43.19
-43.92
-45.50
-47.66
-49.51
-49.72
-46.64
-38.91
-26.27
-10.25
5.98
18.57
24.67
23.76
17.85
10.41
4.60
1.70
0.92
0.31
-1.75
-5.56
-10.12
-14.11
-16.95
-19.32
-22.79
-28.79
-37.61
-48.09
-58.10
-65.58
-69.36
-69.53
-67.03
-62.83
-57.36
-50.41
-41.58
-30.74
-18.25
-4.57
10.14
26.11
43.44
61.30
77.52
88.97
92.89
88.26
76.50
60.98
45.50
32.74
23.57
17.44
13.59
12.05
13.71
19.56
29.47
41.46
52.10
57.66
55.82
46.61
32.50
17.30
4.60
-3.59
-7.51
-9.27
-11.87
-17.91
-28.84
-44.64
-63.94
-84.13
-101.45
-111.34
-109.60
-94.23
-67.04
-34.00
-3.39
17.57
25.88
23.89
17.60
13.09
13.14
16.23
18.17
15.18
6.44
-5.66
-17.24
-25.40
-29.72
-32.05
-34.99
-40.07
-46.91
-53.33
-56.67
-55.09
-48.55
-38.75
-28.21
-18.92
-11.36
-4.39
3.82
14.36
26.79
39.22
49.46
56.42
60.70
64.05
68.11
73.23
78.25
81.28
80.96
77.17
70.70
62.42
52.43
40.12
24.90
7.11
-11.62
-28.85
-42.40
-51.17
-55.53
-56.81
-56.66
-56.48
-57.07
-58.40
-59.51
-58.68
-54.04
-44.69
-31.56
-17.51
-6.24
-0.46
-0.36
-3.43
-5.92
-4.99
-0.39
5.43
8.82
7.16
0.31
-9.43
-18.60
-24.46
-26.00
-24.02
-20.26
-16.36
-13.12
-10.48
-8.04
-5.63
-3.46
-1.93
-1.22
-0.97
-0.24
2.22
7.59
16.67
29.64
45.87
64.06
82.34
98.96
112.81
123.83
132.77
140.42
146.81
150.82
150.76
145.35
134.76
120.78
106.01
92.53
80.78
69.36
55.87
38.33
16.33
-8.70
-34.13
-57.37
-76.97
-93.14
-107.33
-121.36
-136.35
-152.12
-167.09
-178.77
-184.39
-181.69
-169.77
-149.59
-124.07
-97.43
-73.87
-55.95
-43.60
-34.28
-24.41
-11.35
5.23
23.18
39.18
50.50
56.30
57.67
56.65
54.92
53.08
50.74
47.23
42.33
36.59
30.96
26.29
22.88
20.56
18.96
17.80
16.99
16.56
16.64
17.56
19.93
24.51
31.74
41.35
52.33
63.11
72.41
79.86
86.12
92.39
99.49
107.17
114.11
118.56
119.18
115.70
108.80
99.46
88.37
75.46
60.14
41.81
20.30
-3.88
-29.72
-55.94
-81.38
-105.00
-125.89
-143.17
-155.87
-162.90
-163.33
-156.71
-143.68
-126.36
-108.00
-92.13
-81.13
-75.24
-72.51
-69.87
-64.81
-56.75
-47.29
-39.15
-34.75
-34.96
-38.95
-44.97
-51.43
-57.68
-63.91
-70.27
-75.80
-78.25
-74.82
-63.57
-44.59
-20.39
5.05
27.82
45.38
57.24
64.43
68.81
72.41
77.05
84.13
94.27
106.89
120.10
130.96
136.51
134.89
125.95
111.16
93.01
74.14
56.96
43.58
35.66
34.20
39.07
48.58
59.43
67.52
69.24
62.67
48.38
29.20
8.92
-9.14
-23.45
-34.73
-44.98
-56.26
-69.55
-84.14
-97.80
-107.36
-109.75
-103.01
-87.38
-65.59
-42.41
-23.03
-11.05
-6.99
-8.22
-10.50
-10.22
-6.24
-0.13
5.10
6.96
4.93
0.54
-3.80
-6.28
-6.59
-5.72
-5.04
-5.26
-5.93
-5.68
-3.17
2.15
9.66
17.86
25.17
30.66
34.49
37.74
41.97
48.54
58.23
70.87
85.22
99.04
109.53
114.20
111.75
102.79
89.73
75.96
64.52
56.95
53.02
51.25
50.04
48.46
46.50
44.44
42.20
38.90
33.23
24.28
12.24
-1.42
-14.57
-25.40
-33.28
-38.89
-43.71
-49.15
-55.84
-63.42
-70.86
-76.79
-79.80
-78.60
-72.27
-60.70
-45.12
-28.28
-13.86
-5.31
-4.54
-11.08
-22.46
-35.26
-46.56
-54.81
-59.84
-62.30
-62.88
-62.01
-60.07
-57.75
-56.12
-56.31
-58.92
-63.43
-68.25
-71.37
-71.31
-67.96
-62.69
-57.74
-55.08
-55.53
-58.39
-61.84
-63.76
-62.49
-57.23
-48.05
-35.89
-22.72
-11.60
-6.33
-10.32
-24.89
-47.83
-73.35
-93.65
-101.75
-94.18
-72.08
-40.42
-5.66
26.67
53.50
74.11
89.18
99.70
106.36
109.74
110.78
110.92
111.90
115.10
120.98
128.93
137.49
145.03
150.29
152.94
153.72
154.30
156.64
162.13
170.70
180.45
188.07
189.93
183.48
168.21
145.73
118.90
90.67
62.97
36.51
11.16
-13.31
-36.71
-58.38
-77.51
-93.66
-107.00
-118.20
-128.09
-137.11
-145.15
-151.48
-155.14
-155.38
-152.04
-145.53
-136.59
-125.94
-114.05
-101.13
-87.24
-72.41
-56.45
-38.97
-19.51
1.98
24.66
46.47
64.57
76.32
80.23
76.61
67.39
55.35
43.21
33.07
26.25
23.58
25.50
32.07
42.64
55.76
69.29
80.78
88.12
90.01
86.16
77.29
64.76
50.14
34.91
20.17
6.54
-5.88
-17.38
-28.46
-39.40
-49.78
-58.26
-62.77
-61.37
-53.40
-40.23
-25.16
-12.17
-4.26
-2.13
-4.11
-7.32
-9.39
-9.77
-9.71
-11.27
-15.82
-23.24
-31.99
-40.14
-46.40
-50.67
-53.81
-56.87
-60.34
-63.82
-66.25
-66.59
-64.41
-60.08
-54.52
-48.72
-43.25
-38.13
-32.87
-26.70
-18.73
-8.06
5.93
23.17
42.45
61.36
76.77
85.88
87.21
81.19
69.98
56.57
43.72
33.26
26.02
22.12
21.25
22.83
25.79
28.61
29.53
27.09
20.81
11.35
0.35
-10.29
-19.18
-25.82
-30.59
-34.20
-37.24
-39.80
-41.39
-41.19
-38.16
-31.47
-20.87
-7.15
7.69
20.79
29.31
31.57
27.70
19.57
9.87
0.82
-6.70
-13.15
-19.60
-26.83
-34.80
-42.89
-50.44
-57.24
-63.50
-69.42
-74.75
-78.57
-79.73
-77.31
-71.16
-61.78
-50.03
-36.64
-22.03
-6.48
9.48
24.99
39.15
51.54
62.66
73.56
85.06
96.91
107.33
113.62
113.44
106.03
92.79
76.78
61.46
49.37
41.48
37.16
34.86
32.88
29.85
24.96
17.95
9.09
-0.99
-11.47
-21.67
-31.29
-40.56
-50.21
-61.07
-73.81
-88.58
-104.68
-120.16
-131.72
-135.09
-126.54
-104.66
-71.81
-34.07
0.71
25.89
38.66
40.83
37.43
33.91
33.52
36.35
40.07
41.84
39.98
34.55
26.82
18.20
9.57
1.16
-7.09
-15.04
-22.19
-27.79
-31.22
-32.41
-31.79
-30.14
-28.09
-25.77
-22.55
-17.03
-7.53
7.38
28.04
53.19
79.84
103.70
120.24
125.95
119.44
101.94
77.07
49.91
25.75
8.88
1.73
4.58
15.63
31.54
48.06
60.87
66.49
63.02
50.72
31.86
10.19
-10.25
-26.33
-36.60
-41.49
-42.78
-42.77
-43.46
-45.99
-50.26
-54.91
-57.52
-55.38
-46.66
-31.52
-12.68
5.37
17.98
22.30
18.44
9.14
-1.68
-10.80
-16.87
-20.43
-22.87
-25.38
-28.34
-31.56
-34.87
-38.63
-43.53
-50.15
-58.22
-66.52
-73.17
-76.35
-75.15
-69.94
-62.12
-53.44
-45.24
-37.98
-31.32
-24.52
-16.84
-7.63
3.60
17.21
33.06
49.98
65.57
76.44
79.31
72.27
55.80
32.81
7.71
-15.00
-32.01
-41.79
-44.49
-41.47
-34.85
-27.29
-21.72
-20.93
-26.80
-39.60
-57.49
-76.95
-93.75
-104.26
-106.45
-100.26
-87.18
-69.45
-49.48
-29.31
-10.46
6.37
21.41
35.53
49.48
62.87
73.69
78.70
74.90
61.32
39.96
15.32
-7.39
-24.46
-34.94
-40.41
-43.52
-46.36
-49.42
-51.87
-52.56
-51.02
-47.79
-44.03
-40.73
-38.04
-35.19
-30.89
-24.07
-14.55
-3.16
8.66
19.46
28.47
35.82
42.47
49.79
59.17
71.59
87.24
105.21
123.31
138.52
147.73
149.05
142.66
131.00
117.93
107.27
101.37
100.41
102.75
105.82
107.22
105.39
99.74
90.51
78.53
65.17
52.20
41.56
34.80
32.50
33.84
36.56
37.51
33.55
22.72
4.93
-17.93
-42.55
-65.12
-82.29
-91.75
-92.42
-84.66
-70.24
-52.20
-34.40
-20.58
-13.24
-12.91
-18.09
-26.09
-34.17
-40.62
-45.05
-48.03
-50.39
-52.61
-54.78
-56.77
-58.62
-60.66
-63.36
-67.03
-71.46
-75.91
-79.19
-79.99
-77.25
-70.39
-59.41
-45.02
-28.65
-12.24
2.12
13.00
20.24
25.18
29.96
36.39
44.75
53.53
60.17
62.50
60.04
54.34
48.22
44.41
44.43
48.22
54.52
61.51
67.29
70.07
68.29
61.10
48.82
33.30
17.55
4.78
-2.73
-4.37
-1.24
4.46
10.13
13.40
12.52
6.77
-3.03
-14.46
-24.07
-28.62
-26.60
-19.04
-9.17
-0.92
2.82
1.21
-4.63
-12.68
-21.19
-29.16
-36.27
-42.28
-46.83
-49.58
-50.65
-50.93
-51.91
-55.07
-61.14
-69.75
-79.28
-87.41
-91.94
-91.51
-85.99
-76.33
-63.90
-49.85
-34.59
-17.84
0.96
22.11
45.29
69.46
93.01
113.90
129.98
139.23
140.22
132.64
117.72
98.33
78.51
62.48
53.49
52.89
59.74
71.03
82.62
90.28
90.87
82.98
67.17
45.67
21.63
-1.81
-22.29
-38.73
-51.27
-60.85
-68.56
-75.24
-81.20
-86.26
-89.70
-90.31
-86.53
-77.07
-61.69
-41.78
-20.39
-1.28
12.38
19.17
19.70
15.95
10.06
3.44
-3.49
-10.76
-18.22
-25.28
-31.20
-35.68
-39.11
-42.47
-46.59
-51.63
-56.90
-61.06
-62.79
-61.31
-56.65
-49.46
-40.68
-31.18
-21.64
-12.47
-3.73
5.01
14.64
26.21
40.21
55.89
71.09
82.76
88.25
86.57
78.98
68.53
58.82
52.55
50.72
52.65
56.62
60.58
62.65
61.39
55.88
46.01
32.49
16.75
0.49
-14.83
-28.49
-40.45
-51.07
-60.64
-69.12
-75.93
-80.00
-79.96
-74.51
-63.18
-47.02
-28.77
-12.32
-1.32
2.24
-1.16
-8.90
-17.56
-24.54
-28.96
-31.57
-33.85
-36.92
-41.14
-46.15
-51.47
-56.86
-62.37
-68.05
-73.61
-78.31
-81.13
-81.13
-77.84
-71.35
-62.14
-50.78
-37.68
-23.12
-7.54
8.22
23.04
36.09
47.52
58.69
71.59
87.51
105.75
123.30
135.79
139.38
132.58
116.98
96.52
75.83
58.45
45.79
37.26
31.01
24.87
17.13
6.84
-6.10
-20.96
-36.50
-51.30
-64.16
-74.31
-81.43
-85.51
-86.64
-85.15
-81.76
-77.42
-72.75
-67.43
-60.10
-49.16
-34.09
-16.42
0.41
12.52
17.58
16.04
10.83
5.76
3.47
4.40
7.11
9.67
10.91
10.83
10.05
9.00
7.49
4.98
1.17
-3.63
-8.56
-12.62
-15.19
-16.21
-16.00
-14.92
-13.10
-10.56
-7.33
-3.62
0.41
5.06
11.30
20.58
34.05
51.61
71.39
90.12
104.20
111.00
109.79
101.80
89.62
76.17
63.82
53.98
47.01
42.23
38.08
32.42
23.08
8.64
-10.81
-33.59
-56.90
-77.86
-94.54
-106.51
-114.78
-121.08
-127.21
-134.44
-143.40
-153.99
-165.41
-176.33
-185.28
-191.42
-195.20
-198.59
-204.27
-214.20
-228.24
-243.70
-256.31
-262.04
-258.84
-247.28
-229.85
-209.37
-187.55
-164.51
-139.32
-111.14
-80.14
-47.68
-15.75
13.98
40.90
65.66
89.52
113.50
137.43
159.83
178.51
191.64
198.74
200.96
200.37
198.89
197.36
195.32
191.60
184.91
174.23
158.86
138.24
112.23
81.85
49.99
21.52
2.32
-2.69
8.65
34.70
70.39
108.75
142.86
167.48
179.83
179.62
168.68
150.42
129.03
108.46
91.41
78.71
69.30
61.14
52.47
42.78
33.09
25.45
21.94
23.89
31.45
43.76
59.37
76.60
93.82
109.44
122.04
130.49
134.15
133.01
127.76
119.72
110.60
102.27
96.21
93.25
93.43
96.03
99.80
103.26
104.89
103.33
97.50
86.84
71.39
51.88
29.43
5.13
-20.36
-46.98
-74.90
-103.87
-132.75
-159.30
-180.88
-195.39
-201.69
-199.35
-187.83
-165.88
-132.09
-86.31
-31.27
27.00
80.57
122.26
148.20
158.94
158.46
151.76
142.61
132.43
120.73
106.49
89.38
70.18
50.43
31.72
15.12
0.91
-11.19
-21.88
-31.90
-41.73
-51.73
-62.15
-73.07
-84.38
-95.31
-104.29
-109.19
-107.98
-99.69
-85.07
-66.61
-47.70
-31.49
-19.77
-12.52
-8.20
-4.65
0.02
6.85
15.82
26.08
36.12
43.95
47.32
44.09
33.14
15.04
-7.62
-30.84
-50.58
-64.38
-72.14
-75.78
-77.78
-79.58
-80.92
-80.35
-76.72
-70.30
-62.83
-56.40
-52.10
-49.42
-46.89
-43.46
-39.55
-37.04
-38.12
-44.05
-54.42
-67.39
-80.52
-91.48
-98.49
-100.23
-95.90
-85.59
-70.73
-54.12
-39.26
-29.00
-24.36
-24.15
-25.57
-25.71
-22.80
-16.75
-8.84
-0.74
6.21
11.41
15.00
17.84
21.28
26.81
35.40
46.74
58.87
68.56
72.69
69.70
60.64
48.66
37.60
30.20
27.01
26.59
26.65
25.43
22.49
18.63
15.07
12.68
11.44
10.56
8.99
6.11
2.22
-1.41
-2.97
-0.91
5.34
14.85
25.53
34.87
40.94
42.95
41.09
35.90
27.51
15.56
-0.32
-19.64
-40.51
-60.10
-75.78
-86.54
-93.46
-99.04
-105.70
-114.23
-123.35
-130.44
-133.12
-130.64
-124.31
-116.70
-110.33
-106.39
-104.35
-102.57
-99.57
-95.07
-90.15
-86.69
-86.01
-87.92
-90.59
-91.43
-88.30
-80.31
-67.73
-51.16
-30.90
-6.95
20.30
49.26
77.12
100.63
117.43
127.00
130.60
130.33
127.88
123.97
118.58
111.69
103.88
96.07
88.91
82.10
74.40
64.30
51.03
35.09
18.04
1.67
-12.87
-25.40
-36.34
-46.02
-54.18
-60.12
-63.13
-62.89
-59.66
-53.92
-46.14
-36.76
-26.34
-15.82
-6.36
1.06
6.20
9.66
12.55
15.92
20.14
24.86
29.29
32.61
34.34
34.36
32.85
30.13
26.51
22.21
17.26
11.49
4.58
-3.78
-13.64
-24.67
-36.13
-47.05
-56.53
-64.07
-69.68
-73.74
-76.48
-77.58
-76.18
-71.36
-62.83
-51.46
-39.19
-28.25
-20.18
-15.21
-12.33
-10.07
-7.48
-4.58
-2.19
-1.18
-1.82
-3.52
-5.14
-5.60
-4.34
-1.41
2.71
7.43
12.23
16.82
21.11
25.22
29.44
34.24
40.10
47.34
55.89
65.35
75.19
85.07
94.99
105.16
115.58
125.63
134.00
138.99
139.24
134.24
124.46
111.12
95.64
79.26
62.91
47.35
33.37
21.74
12.99
7.00
2.85
-1.07
-6.58
-14.98
-26.46
-39.95
-53.34
-64.12
-70.23
-70.70
-65.94
-57.57
-47.85
-38.97
-32.29
-28.03
-25.35
-22.96
-19.94
-16.25
-12.93
-11.51
-13.10
-17.74
-24.18
-30.47
-34.81
-36.41
-35.66
-33.83
-32.36
-32.24
-33.83
-36.94
-41.22
-46.33
-51.92
-57.49
-62.26
-65.30
-65.87
-63.78
-59.55
-54.21
-48.77
-43.60
-38.00
-30.22
-18.15
-0.20
23.63
51.39
79.37
103.11
118.76
124.37
120.44
109.69
96.06
83.41
74.39
69.95
69.35
70.67
71.48
69.46
63.01
51.65
36.32
19.06
2.47
-11.31
-21.33
-28.21
-33.68
-39.64
-47.13
-55.69
-63.47
-67.83
-66.24
-57.36
-41.79
-22.40
-3.89
8.53
10.90
2.24
-14.85
-35.10
-52.54
-62.86
-64.86
-60.41
-53.13
-46.58
-42.97
-42.87
-45.68
-50.35
-55.89
-61.41
-66.05
-69.01
-69.62
-67.62
-63.12
-56.60
-48.55
-39.16
-28.29
-15.62
-0.99
15.39
33.00
51.30
69.98
88.96
107.92
125.81
140.70
150.10
151.87
144.98
130.13
109.50
86.04
62.68
41.70
24.50
11.70
3.30
-1.17
-2.40
-1.16
1.97
6.56
12.06
17.55
21.70
23.10
20.94
15.69
9.19
4.01
2.50
5.86
13.87
25.47
39.61
55.76
73.73
92.92
111.73
127.60
137.92
141.11
137.21
127.70
114.45
98.72
80.70
59.78
35.33
7.26
-23.75
-56.46
-89.30
-120.45
-147.64
-168.15
-179.20
-178.73
-166.18
-143.00
-112.29
-78.04
-44.02
-12.96
13.73
35.85
54.02
69.18
82.19
93.44
102.55
108.29
108.93
102.93
89.84
70.88
48.78
26.91
8.01
-6.75
-18.04
-27.78
-38.08
-50.28
-64.55
-80.02
-95.36
-109.20
-120.44
-128.21
-131.90
-131.27
-126.72
-119.43
-111.31
-104.38
-100.05
-98.41
-97.99
-96.10
-89.80
-77.22
-58.60
-36.62
-15.59
0.12
7.93
8.02
3.21
-2.44
-5.53
-4.73
-1.05
3.01
4.90
3.15
-2.25
-10.16
-19.14
-27.95
-35.74
-41.90
-45.86
-47.07
-45.15
-40.03
-32.13
-22.25
-11.34
-0.19
10.82
21.71
32.84
44.72
57.83
72.37
87.93
103.22
116.03
123.52
123.02
113.01
94.01
68.80
41.79
17.74
0.29
-8.98
-10.77
-7.35
-1.61
3.89
7.36
7.84
4.98
-1.11
-9.97
-20.74
-32.18
-42.77
-51.12
-56.34
-58.24
-57.37
-54.82
-51.70
-48.42
-44.37
-38.02
-27.76
-13.21
3.93
19.97
30.63
32.88
26.40
13.70
-1.19
-14.58
-24.63
-31.55
-36.75
-41.50
-46.19
-50.45
-53.81
-56.40
-58.89
-62.01
-65.90
-69.81
-72.42
-72.53
-69.58
-63.80
-55.91
-46.56
-35.98
-23.95
-9.95
6.71
26.74
50.68
78.43
108.57
137.87
161.50
174.23
172.31
155.16
125.94
90.55
55.64
26.41
5.25
-8.21
-16.24
-21.78
-27.52
-35.40
-46.24
-59.55
-73.40
-84.69
-89.99
-86.62
-73.64
-52.30
-25.79
1.61
25.56
42.50
50.29
48.60
39.07
25.20
11.74
3.42
3.38
11.91
26.13
41.02
51.33
53.70
47.87
36.48
23.74
13.54
7.97
6.86
8.39
10.26
10.76
9.21
5.87
1.44
-3.51
-8.81
-14.68
-21.33
-28.51
-35.16
-39.44
-39.25
-32.90
-19.81
-0.76
22.38
47.23
71.51
93.47
112.18
127.62
140.68
152.92
165.85
180.06
194.50
206.44
212.22
208.62
194.19
169.84
138.56
104.33
70.96
41.22
16.60
-2.51
-16.52
-26.33
-33.17
-38.43
-43.49
-49.58
-57.53
-67.58
-79.24
-91.33
-102.33
-110.93
-116.68
-120.26
-123.33
-127.72
-134.60
-143.88
-154.20
-163.45
-169.22
-169.05
-160.46
-141.28
-110.61
-70.00
-24.21
19.45
53.38
72.32
75.49
66.45
51.18
35.17
21.32
9.65
-1.29
-12.65
-24.11
-34.13
-41.04
-44.32
-44.92
-44.77
-45.72
-48.58
-52.50
-55.03
-52.72
-42.28
-21.90
7.71
43.04
78.50
108.07
127.13
133.73
128.95
116.14
99.52
82.89
68.80
58.37
51.55
47.55
45.04
42.34
37.82
30.33
19.76
7.22
-5.14
-14.73
-19.46
-18.49
-12.44
-3.30
6.29
13.91
18.08
18.57
16.05
11.27
4.45
-4.98
-17.81
-34.03
-52.19
-69.50
-82.88
-90.41
-92.35
-90.88
-89.11
-89.57
-93.35
-100.08
-108.50
-117.03
-124.03
-127.82
-126.95
-120.60
-109.03
-93.53
-75.98
-57.92
-39.97
-21.92
-3.46
15.15
32.81
48.38
61.63
73.72
86.90
103.11
122.72
143.87
163.09
176.51
181.39
177.01
164.57
146.66
126.21
105.75
86.98
70.60
56.36
43.27
30.06
15.74
0.09
-16.21
-31.86
-45.36
-55.64
-62.33
-65.69
-66.53
-65.72
-63.78
-60.49
-54.88
-45.82
-33.06
-18.25
-4.87
2.77
1.37
-9.75
-28.03
-48.74
-66.94
-79.33
-85.30
-86.34
-84.86
-82.97
-81.69
-81.15
-80.87
-80.28
-78.86
-76.24
-72.19
-66.72
-59.92
-51.86
-42.48
-31.48
-18.38
-2.74
15.46
35.82
57.60
80.24
103.67
128.19
154.01
180.49
205.62
225.94
237.53
237.14
223.40
197.55
163.05
124.87
88.36
58.18
37.41
27.09
25.96
30.76
37.14
40.85
39.01
30.92
17.90
2.49
-12.70
-25.97
-36.66
-44.84
-50.73
-54.35
-55.77
-55.46
-54.39
-53.54
-53.38
-53.51
-53.09
-51.72
-50.16
-50.19
-53.77
-61.88
-73.79
-87.58
-101.09
-113.08
-123.73
-134.10
-145.13
-156.75
-167.76
-176.25
-180.58
-179.78
-173.81
-163.24
-148.87
-131.38
-111.17
-88.50
-63.70
-37.48
-10.93
14.45
37.18
56.38
72.12
85.70
99.10
114.27
131.84
150.63
167.56
178.53
179.98
170.24
150.48
124.60
98.12
76.32
62.49
56.85
56.63
57.34
54.59
45.82
31.14
13.01
-5.08
-20.10
-30.49
-36.40
-39.00
-39.62
-38.92
-36.79
-32.73
-26.45
-18.19
-8.52
1.91
12.81
23.89
34.41
42.85
47.05
45.11
36.50
22.61
6.48
-8.28
-18.97
-24.68
-26.29
-25.69
-24.74
-24.58
-25.51
-27.25
-29.40
-31.69
-34.04
-36.37
-38.47
-39.87
-39.97
-38.30
-34.61
-29.00
-21.85
-13.67
-4.98
3.89
12.96
22.59
33.36
45.68
59.42
73.53
86.13
94.86
97.60
93.32
82.57
67.51
51.26
36.94
26.68
20.93
18.44
16.82
13.42
6.38
-4.63
-18.32
-32.32
-44.00
-51.41
-53.73
-51.12
-44.37
-34.49
-22.54
-9.93
1.51
9.76
13.32
11.89
6.65
-0.36
-7.36
-13.82
-20.57
-29.10
-40.35
-53.90
-68.05
-80.71
-90.54
-97.40
-102.05
-105.23
-106.76
-105.41
-99.48
-87.86
-70.77
-49.98
-28.24
-8.29
7.91
19.65
27.39
32.34
35.99
39.68
44.33
50.35
57.70
66.11
75.37
85.54
96.71
108.66
120.27
129.35
133.15
129.38
117.37
98.59
76.23
54.06
34.99
20.21
9.08
-0.27
-9.98
-21.79
-36.72
-55.09
-76.56
-100.14
-124.31
-147.13
-166.63
-181.25
-190.13
-193.18
-190.98
-184.67
-175.85
-166.15
-156.79
-148.12
-139.66
-130.69
-121.16
-112.20
-105.83
-103.62
-105.46
-108.87
-109.96
-105.09
-92.66
-73.78
-51.29
-28.22
-6.31
14.18
33.71
52.35
69.30
83.15
92.63
97.19
97.16
93.51
87.59
80.95
75.25
72.11
72.69
77.37
85.63
96.40
108.57
121.39
134.38
146.95
157.90
165.47
167.80
163.65
153.02
137.26
118.70
99.86
82.90
68.97
58.25
50.06
43.33
36.99
30.24
22.69
14.28
5.18
-4.23
-13.48
-22.00
-29.19
-34.58
-37.90
-39.16
-38.67
-37.01
-35.05
-33.81
-34.01
-35.74
-38.18
-39.86
-39.27
-35.68
-29.46
-21.91
-14.44
-7.78
-1.70
4.60
11.68
19.18
25.73
29.57
29.50
25.50
18.75
11.19
4.74
0.77
0.02
2.66
8.53
17.07
27.27
37.59
46.31
51.99
54.05
53.01
50.16
47.17
45.51
46.06
49.08
54.16
60.34
66.12
69.67
69.28
63.92
53.78
40.35
26.04
13.31
3.90
-1.70
-4.21
-5.22
-6.76
-10.77
-18.76
-31.43
-48.52
-68.81
-90.39
-111.02
-128.56
-141.19
-147.51
-146.64
-138.24
-122.83
-101.98
-78.23
-54.46
-32.97
-14.66
0.96
15.03
28.15
39.65
47.71
50.58
47.85
41.19
33.85
29.19
29.14
33.31
39.40
44.44
46.24
44.12
38.85
31.90
24.66
18.11
12.75
8.86
6.57
5.93
6.78
8.72
11.21
13.72
16.02
18.42
21.76
27.15
35.08
44.46
52.10
53.09
42.50
17.65
-20.26
-65.82
-111.20
-148.84
-173.93
-185.43
-185.42
-177.24
-164.03
-148.08
-131.10
-114.69
-100.57
-90.16
-83.93
-81.12
-80.09
-78.82
-75.56
-69.08
-58.54
-43.69
-24.91
-3.61
17.91
37.15
52.39
63.43
71.56
78.90
87.59
99.24
114.87
134.88
158.52
183.19
204.14
215.31
211.35
190.12
154.02
109.30
63.61
23.09
-9.18
-33.06
-49.73
-60.19
-64.89
-64.45
-60.68
-56.71
-55.92
-60.07
-68.06
-76.01
-79.03
-73.58
-59.10
-37.98
-14.13
8.98
29.59
47.56
63.47
77.61
89.71
99.41
106.69
111.86
114.76
114.21
108.26
95.53
76.72
55.22
36.06
23.64
19.52
21.63
25.41
26.31
21.93
12.92
1.97
-8.04
-15.80
-21.72
-27.01
-32.04
-35.68
-35.82
-30.79
-20.79
-8.09
3.89
12.38
16.62
18.22
20.30
25.93
36.64
51.56
67.56
79.98
84.11
76.75
57.58
29.56
-1.79
-30.16
-50.41
-59.88
-58.58
-48.36
-31.87
-11.81
9.28
28.90
44.52
53.91
55.85
50.88
41.72
32.89
29.35
34.62
49.00
68.94
87.89
98.67
96.03
78.64
49.34
13.91
-20.91
-49.33
-67.67
-74.72
-71.71
-61.93
-49.93
-40.25
-35.90
-37.29
-42.27
-47.32
-49.32
-46.91
-40.68
-32.38
-23.82
-16.20
-10.17
-6.26
-5.01
-6.74
-11.03
-16.37
-20.61
-21.86
-19.50
-14.49
-8.83
-4.48
-2.53
-2.94
-4.96
-7.78
-10.79
-13.83
-16.85
-19.74
-22.27
-24.27
-25.71
-26.76
-27.51
-27.48
-26.06
-22.89
-18.17
-12.82
-8.19
-5.39
-4.74
-5.72
-6.32
-4.58
0.72
9.63
21.13
33.61
45.62
56.25
65.16
73.77
83.41
94.96
108.68
124.34
141.74
161.07
182.64
206.33
232.68
260.89
289.10
315.02
336.85
353.94
366.96
377.30
375.09
352.96
306.49
237.22
153.26
66.31
-13.36
-80.62
-135.95
-183.14
-224.24
-259.09
-285.13
-299.35
-300.78
-291.87
-277.71
-263.83
-253.72
-246.42
-238.69
-227.32
-211.34
-192.74
-175.23
-161.81
-153.13
-147.51
-141.55
-132.94
-121.51
-109.10
-98.17
-90.23
-84.92
-80.33
-74.26
-65.14
-53.27
-40.53
-29.51
-22.05
-18.37
-16.96
-15.68
-13.06
-9.19
-5.68
-4.45
-6.21
-9.75
-12.40
-11.61
-6.43
1.72
10.00
15.75
18.17
18.36
18.38
19.38
20.60
19.78
14.72
5.10
-7.01
-17.64
-22.77
-20.27
-10.78
2.50
15.31
23.97
26.69
23.65
16.45
6.93
-3.55
-14.34
-25.14
-35.16
-42.63
-44.91
-39.56
-26.02
-6.96
11.82
23.09
21.52
6.34
-17.75
-42.15
-57.99
-59.65
-46.51
-22.38
6.78
35.15
58.29
73.00
77.05
69.48
51.73
28.34
6.13
-8.44
-12.27
-6.99
1.84
7.89
7.44
0.97
-7.70
-13.99
-15.23
-11.88
-6.45
-1.47
2.46
7.04
15.17
28.88
47.79
68.73
86.73
97.19
97.69
88.93
74.23
57.79
42.71
30.48
21.39
14.95
11.11
10.77
15.39
25.64
40.02
54.71
64.78
65.96
56.39
37.25
11.88
-15.90
-43.18
-68.53
-91.62
-112.60
-131.94
-150.70
-170.52
-192.91
-217.84
-242.47
-261.10
-266.88
-254.87
-224.99
-182.82
-137.81
-99.29
-72.45
-56.20
-43.96
-27.03
1.22
42.33
92.19
142.52
183.81
208.03
210.36
189.95
149.74
95.57
34.72
-25.57
-79.31
-122.42
-152.76
-169.73
-173.87
-166.87
-151.42
-130.63
-106.92
-80.78
-50.80
-15.24
25.02
64.79
95.15
107.15
96.29
65.45
24.25
-14.76
-41.05
-49.55
-41.24
-21.59
1.85
21.61
31.64
28.57
12.87
-10.81
-34.51
-49.59
-50.04
-34.94
-8.58
21.61
48.02
65.38
71.71
68.16
58.25
46.58
37.74
35.43
41.74
56.97
79.95
108.47
140.00
172.19
202.78
229.51
250.35
264.23
271.67
275.08
276.95
278.96
280.86
280.18
273.30
257.35
232.23
201.30
170.24
143.13
121.65
104.84
90.13
74.53
55.68
32.55
5.46
-24.40
-57.87
-95.67
-137.16
-179.72
-219.62
-253.40
-278.65
-294.42
-300.99
-302.76
-304.54
-309.54
-318.48
-330.75
-346.08
-364.93
-387.95
-396.42
-375.99
-323.20
-248.38
-167.06
-90.95
-25.95
26.12
65.64
94.79
113.99
124.30
127.98
128.52
129.06
130.61
132.48
132.86
130.71
123.49
109.72
89.80
66.51
44.14
26.50
18.17
18.89
24.62
27.86
22.16
5.56
-18.12
-41.26
-56.54
-60.23
-53.65
-41.48
-29.74
-22.37
-19.73
-19.71
-17.96
-12.26
-3.03
7.03
14.82
18.46
18.10
15.38
12.35
10.12
8.01
4.76
-0.40
-7.19
-13.76
-17.80
-17.42
-11.53
0.39
18.11
40.52
65.29
88.61
106.29
115.62
116.35
110.86
103.02
95.99
89.58
83.17
73.62
57.99
35.91
9.97
-15.47
-36.80
-53.16
-65.32
-74.65
-81.90
-85.80
-83.38
-71.97
-51.45
-25.58
-1.26
14.28
16.67
6.08
-12.54
-31.35
-43.42
-45.91
-40.92
-34.04
-30.84
-34.03
-42.69
-53.19
-61.30
-64.28
-62.70
-57.68
-51.21
-44.53
-37.52
-29.21
-18.87
-5.39
10.16
25.04
36.87
43.90
46.97
48.31
49.44
50.56
52.03
54.62
59.31
67.21
78.79
92.61
105.45
113.48
109.05
91.89
70.69
56.04
51.74
56.40
63.48
70.16
78.23
92.16
113.73
142.01
171.05
191.81
197.59
186.42
161.43
128.21
92.55
59.93
34.35
17.51
8.12
4.89
5.76
7.54
6.11
-1.69
-15.83
-33.30
-50.07
-64.74
-76.17
-85.05
-94.29
-108.58
-132.79
-170.01
-220.78
-282.56
-350.93
-414.76
-458.95
-470.18
-442.72
-381.15
-299.20
-215.39
-131.56
-59.82
-9.58
20.48
39.93
57.31
74.97
90.84
102.56
110.31
114.43
117.85
123.22
130.15
135.61
136.65
132.61
125.27
118.15
112.92
111.26
113.79
119.00
123.76
125.18
122.00
114.50
104.44
92.63
80.28
68.17
55.90
42.02
25.21
6.64
-12.98
-31.95
-48.75
-61.70
-69.72
-72.99
-72.97
-71.68
-70.92
-71.93
-74.62
-78.13
-81.00
-82.05
-80.82
-77.92
-74.53
-71.91
-71.16
-72.90
-77.39
-84.38
-92.48
-98.67
-98.72
-88.71
-67.07
-36.16
-1.75
29.06
50.65
61.10
62.34
58.42
53.11
48.25
43.59
38.22
31.84
25.39
20.41
17.96
17.82
18.52
18.19
15.26
9.54
2.03
-5.37
-10.85
-13.52
-13.71
-12.79
-12.49
-13.95
-17.14
-20.76
-22.77
-21.23
-15.31
-5.68
5.74
16.52
24.82
30.12
33.49
36.68
41.30
47.74
54.94
60.94
64.15
64.20
61.97
58.57
54.49
49.25
42.11
33.45
25.36
20.92
21.99
27.38
32.80
33.08
25.45
11.58
-3.41
-14.42
-19.59
-21.37
-24.27
-30.82
-39.09
-43.41
-37.86
-20.25
6.07
33.24
52.80
59.47
53.23
38.87
23.53
13.86
13.59
22.03
34.75
45.54
49.19
44.01
32.47
19.73
10.75
7.51
8.27
9.09
6.78
1.17
-4.68
-6.69
-2.84
5.12
11.70
10.13
-4.22
-31.25
-65.77
-99.59
-125.24
-139.08
-141.96
-137.71
-130.04
-120.64
-109.26
-95.76
-81.97
-71.77
-68.83
-73.53
-81.46
-84.95
-77.13
-56.27
-27.11
1.91
24.06
38.67
51.44
69.93
97.32
128.54
151.51
153.68
129.79
86.33
39.60
7.96
2.72
22.69
55.62
85.03
98.64
93.20
73.55
47.61
21.03
-4.93
-31.36
-58.07
-81.77
-97.38
-101.75
-96.55
-88.02
-83.69
-87.83
-99.29
-112.13
-119.17
-115.48
-100.02
-74.54
-41.40
-1.88
43.68
94.01
145.50
191.77
225.32
240.07
233.30
206.35
163.23
108.97
48.34
-14.05
-72.64
-120.01
-147.41
-147.63
-118.56
-65.71
-1.76
57.00
96.05
106.98
89.02
47.43
-10.06
-76.04
-144.20
-208.36
-261.39
-295.52
-304.43
-286.00
-243.78
-186.69
-125.66
-69.75
-23.21
14.78
47.88
80.07
113.82
150.10
188.80
229.08
269.39
306.63
336.21
352.58
351.10
330.37
293.28
245.49
192.64
138.67
85.55
35.14
-9.16
-41.84
-56.72
-49.78
-22.07
16.46
51.09
67.76
61.11
36.59
5.16
-23.91
-46.70
-64.04
-78.81
-92.42
-103.88
-110.37
-109.79
-102.41
-90.77
-78.70
-69.43
-64.67
-63.47
-62.79
-58.87
-49.33
-34.41
-16.50
0.93
15.02
24.38
30.31
36.27
46.16
61.74
81.58
101.74
116.80
122.34
115.75
97.23
68.94
33.97
-4.66
-43.57
-78.57
-106.02
-123.98
-134.21
-141.13
-150.07
-162.21
-176.97
-191.06
-199.78
-200.47
-189.07
-166.58
-137.25
-105.55
-73.58
-41.23
-10.60
17.62
40.39
53.92
55.52
46.45
32.83
23.44
26.38
45.83
80.03
120.80
157.25
179.76
184.37
173.71
154.53
133.51
114.10
96.14
77.16
55.34
31.05
7.21
-12.44
-25.39
-31.65
-33.07
-31.66
-28.37
-22.62
-13.18
0.74
18.94
40.25
63.10
85.99
107.57
126.01
138.97
144.00
139.54
125.52
103.26
74.58
41.18
4.63
-32.97
-67.96
-95.03
-108.33
-103.52
-79.92
-41.42
4.16
47.21
79.20
95.24
95.27
83.38
65.74
47.97
33.22
21.70
11.55
0.60
-12.29
-26.69
-41.21
-54.30
-64.83
-72.12
-75.65
-74.91
-69.86
-61.49
-52.38
-46.32
-47.16
-57.29
-76.30
-100.74
-124.75
-141.59
-145.63
-134.12
-108.16
-72.52
-34.19
-0.06
25.13
40.00
46.45
48.30
49.51
52.85
59.11
67.43
75.98
82.80
86.33
85.67
80.65
71.73
59.95
46.71
33.47
21.41
11.00
2.00
-6.47
-15.58
-26.22
-38.78
-52.93
-67.90
-82.78
-96.74
-108.99
-118.47
-123.86
-123.68
-116.84
-103.12
-83.62
-60.50
-36.60
-14.68
3.12
15.64
22.80
25.31
24.36
21.27
17.16
12.88
8.99
5.84
3.56
2.09
1.17
0.40
-0.56
-1.90
-3.47
-4.88
-5.69
-5.67
-4.93
-3.85
-2.94
-2.55
-2.77
-3.52
-4.68
-6.24
-8.22
-10.69
-13.60
-16.80
-20.08
-23.04
-25.12
-25.61
-23.72
-18.89
-11.07
-0.91
10.32
21.06
29.98
36.31
39.94
41.25
40.81
39.09
36.36
32.69
28.16
23.01
17.58
12.34
7.63
3.64
0.38
-2.17
-4.01
-5.10
-5.44
-5.29
-5.16
-5.67
-7.27
-10.01
-13.53
-17.27
-20.75
-23.84
-26.73
-29.84
-33.51
-37.74
-42.16
-45.89
-47.80
-46.79
-42.19
-34.09
-23.46
-11.96
-1.43
6.64
11.57
13.46
12.96
10.84
7.74
4.07
0.15
-3.67
-6.96
-9.35
-10.66
-11.00
-10.66
-9.95
-9.06
-8.06
-6.97
-5.91
-5.16
-5.11
-6.03
-7.94
-10.55
-13.36
-15.89
-17.85
-19.34
-20.72
-22.48
-24.98
-28.17
-31.48
-33.86
-34.07
-31.14
-24.78
-15.55
-4.68
6.33
16.10
23.78
28.99
31.81
32.50
31.44
29.12
26.14
23.16
20.65
18.84
17.53
16.34
14.94
13.22
11.36
9.72
8.57
7.97
7.73
7.46
6.87
5.89
4.64
3.38
2.25
1.12
-0.40
-2.76
-6.27
-11.03
-16.94
-23.69
-30.77
-37.38
-42.36
-44.40
-42.40
-36.03
-25.99
-13.96
-2.11
7.66
14.26
17.60
18.29
17.15
14.76
11.40
7.31
2.88
-1.17
-4.00
-4.93
-3.89
-1.48
1.17
2.91
3.02
1.46
-1.13
-3.84
-5.93
-7.12
-7.63
-8.01
-8.80
-10.20
-12.04
-13.82
-15.07
-15.66
-15.94
-16.76
-19.13
-23.80
-30.93
-39.72
-48.42
-54.87
-57.23
-54.61
-47.48
-37.38
-26.39
-16.51
-8.92
-3.87
-0.93
0.54
0.96
0.47
-0.94
-3.14
-5.96
-8.83
-10.91
-11.50
-10.35
-7.94
-5.29
-3.61
-3.79
-6.79
-12.43
-19.49
-26.33
-31.75
-35.62
-38.90
-42.91
-48.60
-57.58
-69.75
-83.19
-95.23
-103.91
-109.08
-112.47
-116.68
-123.93
-137.53
-157.98
-182.24
-205.32
-221.94
-228.85
-225.99
-216.36
-205.25
-201.92
-212.61
-237.24
-269.79
-299.77
-316.97
-315.81
-297.38
-248.03
-169.12
-74.36
16.41
87.50
136.06
169.10
195.41
220.03
242.32
254.07
245.47
214.65
164.53
103.71
44.10
-2.20
-25.38
-21.15
5.19
43.74
87.16
121.88
136.84
128.50
101.83
68.03
39.75
22.74
20.13
33.70
62.06
103.18
154.02
205.85
248.74
274.08
276.29
256.42
220.95
176.94
132.56
95.26
68.68
52.89
45.02
40.43
35.97
29.24
15.22
-9.48
-44.37
-86.61
-131.15
-172.10
-204.23
-222.05
-221.34
-203.25
-169.81
-121.70
-60.97
8.79
82.82
146.33
185.90
215.59
248.25
283.60
322.57
363.70
403.23
436.30
458.64
469.64
471.33
463.35
445.42
418.86
384.31
342.46
294.76
243.74
193.83
149.47
110.99
77.15
47.35
20.71
-3.41
-25.17
-44.63
-61.25
-74.62
-86.38
-98.05
-109.81
-121.44
-132.54
-142.53
-150.96
-157.08
-160.30
-161.22
-160.64
-158.99
-156.59
-153.57
-149.87
-145.38
-140.08
-134.19
-128.49
-123.82
-120.66
-119.19
-119.32
-120.75
-123.14
-126.22
-129.91
-134.29
-139.60
-146.09
-153.73
-162.04
-169.87
-175.51
-177.01
-172.62
-161.33
-143.17
-119.25
-91.47
-61.97
-32.68
-4.98
20.32
42.76
61.99
77.69
89.61
97.83
102.78
105.13
105.54
104.37
101.64
97.12
90.75
82.83
74.14
65.72
58.51
53.09
49.54
47.50
46.42
45.79
45.24
44.58
43.71
42.45
40.53
37.68
33.69
28.51
22.21
14.92
6.72
-2.25
-11.58
-20.50
-27.88
-32.48
-33.33
-30.13
-23.38
-14.27
-4.25
5.28
13.32
19.34
23.23
25.12
25.30
24.12
21.97
19.37
16.90
15.07
14.27
14.57
15.81
17.61
19.50
21.05
21.92
21.86
20.74
18.62
15.69
12.30
8.80
5.42
2.23
-0.84
-3.88
-6.94
-10.03
-13.13
-16.29
-19.50
-22.62
-25.17
-26.36
-25.31
-21.37
-14.46
-5.19
5.27
15.51
24.28
30.68
34.30
35.13
33.39
29.50
23.96
17.36
10.29
3.35
-3.00
-8.44
-12.79
-16.06
-18.38
-19.95
-21.09
-22.10
-23.25
-24.73
-26.68
-29.16
-32.21
-35.83
-39.95
-44.40
-48.89
-53.11
-56.82
-60.00
-62.87
-65.86
-69.38
-73.64
-78.33
-82.64
-85.36
-85.22
-81.21
-72.91
-60.68
-45.51
-28.90
-12.49
2.29
14.47
23.70
30.15
34.34
36.91
38.37
39.02
38.99
38.36
37.28
35.95
34.60
33.42
32.43
31.54
30.53
29.13
27.19
24.62
21.53
18.04
14.36
10.60
6.81
2.99
-0.84
-4.64
-8.35
-11.95
-15.44
-18.83
-22.16
-25.38
-28.42
-31.26
-34.02
-37.00
-40.53
-44.81
-49.62
-54.28
-57.64
-58.44
-55.73
-49.14
-39.03
-26.46
-12.76
0.69
12.79
22.88
30.70
36.35
40.11
42.35
43.45
43.71
43.45
43.00
42.74
43.03
44.02
45.61
47.41
48.91
49.71
49.70
49.01
47.87
46.37
44.35
41.57
37.83
33.21
28.07
22.84
17.92
13.48
9.59
6.26
3.56
1.63
0.48
-0.02
-0.22
-0.58
-1.43
-2.90
-4.95
-7.48
-10.42
-13.91
-18.20
-23.58
-30.26
-38.26
-47.31
-56.86
-66.01
-73.52
-78.04
-78.30
-73.55
-63.85
-50.15
-34.10
-17.57
-2.14
11.21
22.14
30.71
37.07
41.28
43.32
43.31
41.69
39.21
36.74
34.97
34.15
34.09
34.22
34.01
33.10
31.48
29.40
27.18
25.00
22.87
20.65
18.21
15.54
12.76
10.03
7.46
5.00
2.56
0.07
-2.41
-4.78
-6.97
-9.17
-11.70
-14.92
-18.95
-23.54
-28.14
-32.13
-35.14
-37.17
-38.57
-39.85
-41.50
-43.80
-46.79
-50.22
-53.51
-55.84
-56.19
-53.63
-47.64
-38.38
-26.71
-14.02
-1.77
8.84
17.15
23.03
26.68
28.47
28.77
28.03
26.79
25.67
25.21
25.76
27.20
29.09
30.80
31.80
31.95
31.46
30.83
30.56
30.90
31.73
32.61
32.98
32.38
30.64
27.91
24.57
21.07
17.71
14.56
11.53
8.41
5.05
1.42
-2.44
-6.37
-10.18
-13.69
-16.79
-19.46
-21.88
-24.37
-27.35
-31.21
-36.12
-41.89
-47.92
-53.13
-56.28
-56.17
-52.12
-44.22
-33.36
-20.99
-8.71
2.22
11.09
17.72
22.31
25.10
26.33
26.20
25.00
23.19
21.27
19.72
18.81
18.55
18.83
19.40
20.06
20.61
20.98
21.08
20.90
20.41
19.61
18.47
16.93
14.99
12.67
10.05
7.28
4.48
1.63
-1.31
-4.48
-7.97
-11.71
-15.60
-19.43
-23.13
-26.73
-30.49
-34.65
-39.27
-44.02
-48.11
-50.42
-49.88
-45.89
-38.54
-28.62
-17.41
-6.20
3.97
12.46
18.95
23.30
25.48
25.57
23.85
20.83
17.20
13.73
11.07
9.60
9.36
10.01
10.97
11.62
11.47
10.36
8.45
6.12
3.74
1.50
-0.67
-2.96
-5.57
-8.55
-11.69
-14.70
-17.32
-19.45
-21.22
-23.00
-25.26
-28.38
-32.53
-37.52
-42.79
-47.44
-50.37
-50.61
-47.51
-40.99
-31.60
-20.46
-8.90
1.84
10.92
17.99
23.11
26.53
28.53
29.29
28.95
27.69
25.82
23.78
22.04
20.89
20.41
20.40
20.48
20.30
19.72
18.74
17.53
16.21
14.72
12.82
10.25
6.83
2.69
-1.81
-6.23
-10.23
-13.70
-16.82
-19.92
-23.36
-27.48
-32.43
-38.16
-44.26
-49.94
-54.06
-55.43
-53.12
-46.95
-37.55
-26.27
-14.69
-4.15
4.58
11.37
16.46
20.22
22.91
24.74
25.84
26.42
26.71
26.91
27.14
27.43
27.74
28.05
28.31
28.52
28.63
28.64
28.50
28.15
27.41
26.07
23.91
20.89
17.21
13.29
9.64
6.58
4.09
1.77
-0.90
-4.28
-8.44
-13.03
-17.54
-21.49
-24.65
-27.10
-29.26
-31.68
-34.91
-39.16
-44.15
-48.96
-52.21
-52.41
-48.50
-40.27
-28.51
-14.81
-0.97
11.49
21.78
29.79
35.92
40.72
44.59
47.77
50.36
52.42
54.05
55.37
56.48
57.42
58.19
58.80
59.29
59.71
60.07
60.27
60.12
59.32
57.48
54.24
49.34
42.86
35.24
27.21
19.63
13.01
7.43
2.46
-2.54
-8.04
-14.05
-20.11
-25.53
-29.71
-32.37
-33.59
-33.56
-32.52
-30.69
-28.26
-25.50
-22.56
-19.32
-15.26
-9.51
-1.26
9.74
22.93
36.94
50.09
60.96
68.88
73.89
76.57
77.59
77.47
76.37
74.21
70.69
65.39
58.05
48.68
37.82
26.33
15.26
5.29
-3.43
-11.32
-18.99
-26.77
-34.45
-41.46
-47.27
-51.82
-55.64
-59.45
-63.78
-68.51
-72.87
-75.80
-76.38
-74.35
-70.22
-65.16
-60.64
-58.04
-58.19
-61.09
-65.87
-70.90
-74.28
-74.32
-70.03
-61.21
-48.41
-32.61
-15.02
3.15
20.71
36.64
50.08
60.41
67.31
70.68
70.59
67.19
60.86
52.26
42.38
32.43
23.48
16.12
10.33
5.61
1.22
-3.31
-8.03
-12.59
-16.44
-19.12
-20.41
-20.31
-18.90
-16.30
-12.68
-8.35
-3.90
-0.06
2.55
3.60
3.24
1.98
0.53
-0.42
-0.24
1.61
5.60
12.04
20.92
31.69
43.24
54.17
63.13
69.30
72.53
73.35
72.55
70.88
68.76
66.39
63.85
61.22
58.47
55.17
50.36
42.45
29.75
11.09
-13.73
-43.77
-77.43
-113.19
-150.11
-187.98
-226.98
-267.14
-307.98
-348.31
-386.42
-420.32
-448.08
-468.15
-479.72
-482.98
-479.16
-470.24
-458.34
-444.77
-429.55
-411.29
-387.52
-355.57
-313.51
-261.16
-200.58
-136.66
-77.03
-30.79
-5.98
-6.35
-28.96
-64.17
-98.47
-118.83
-117.07
-91.93
-48.08
7.05
66.76
127.13
186.83
245.32
301.72
354.16
400.53
439.82
473.01
502.84
532.36
563.34
594.75
623.79
646.57
659.20
658.76
643.82
615.13
575.17
527.28
473.56
415.85
354.97
290.28
220.49
144.64
63.52
-20.49
-104.84
-189.02
-271.24
-347.87
-413.65
-462.34
-488.84
-490.04
-465.67
-418.31
-354.25
-278.14
-193.15
-102.25
-12.41
62.15
106.61
114.16
100.62
74.99
41.52
2.60
-43.11
-90.08
-128.63
-147.82
-140.15
-105.73
-54.81
-0.60
45.32
76.55
93.58
101.49
107.80
119.61
141.48
173.34
213.58
258.52
301.52
333.87
346.27
332.95
294.36
237.57
172.96
111.69
61.47
23.92
-4.52
-30.09
-57.89
-89.78
-124.72
-160.94
-196.57
-230.12
-259.67
-281.81
-291.68
-284.36
-257.42
-213.01
-158.05
-101.82
-52.71
-15.27
10.80
29.39
45.50
62.65
81.63
100.96
118.30
131.96
141.96
149.98
158.43
169.36
183.53
200.19
217.73
233.78
245.24
248.37
239.47
215.72
176.46
123.75
61.70
-4.23
-69.32
-131.13
-189.65
-245.90
-300.07
-349.56
-388.90
-411.32
-410.41
-383.25
-332.23
-264.71
-190.53
-119.09
-56.59
-3.81
37.03
64.84
80.34
85.46
82.21
73.79
62.17
49.74
38.81
30.76
26.04
23.44
20.87
15.90
6.94
-6.01
-21.00
-36.28
-50.71
-63.64
-75.09
-85.38
-94.30
-99.71
-99.91
-94.12
-83.05
-68.69
-53.23
-38.44
-25.39
-13.87
-2.87
9.43
24.91
44.68
68.80
96.57
126.97
156.23
180.80
197.79
206.28
206.38
198.35
182.84
161.57
137.51
113.97
96.30
83.81
74.54
66.36
58.01
49.63
42.27
36.98
33.74
31.66
28.08
21.48
11.21
-2.13
-16.64
-29.51
-37.96
-40.50
-37.45
-31.47
-25.85
-23.84
-27.53
-37.22
-51.47
-67.66
-82.56
-92.98
-96.66
-92.51
-81.55
-66.86
-52.63
-42.54
-38.41
-39.48
-43.12
-46.25
-46.60
-43.57
-37.95
-31.00
-23.62
-16.07
-8.37
-0.81
5.71
9.95
10.86
8.26
3.18
-2.38
-6.28
-7.03
-4.37
0.70
6.52
11.51
14.71
15.99
15.80
14.72
13.16
11.21
8.80
5.86
2.43
-1.24
-4.88
-8.31
-11.49
-14.60
-17.86
-21.41
-25.18
-28.89
-32.22
-34.93
-37.11
-39.11
-41.37
-44.09
-46.96
-49.11
-49.41
-46.86
-41.09
-32.48
-22.00
-10.86
-0.05
9.73
18.15
25.02
30.27
33.88
36.05
37.20
37.89
38.66
39.75
41.08
42.35
43.21
43.43
43.01
42.07
40.74
39.19
37.58
36.05
34.71
33.52
32.18
30.25
27.28
23.03
17.70
11.83
6.14
1.23
-2.67
-5.78
-8.56
-11.53
-15.03
-19.13
-23.69
-28.47
-33.22
-37.61
-41.28
-43.60
-43.92
-41.69
-36.82
-29.76
-21.50
-13.22
-5.87
0.10
4.70
8.14
10.55
11.93
12.20
11.48
10.25
9.15
8.77
9.28
10.42
11.61
12.31
12.31
11.78
11.15
10.76
10.69
10.69
10.37
9.40
7.68
5.31
2.49
-0.63
-3.99
-7.63
-11.50
-15.42
-19.06
-22.10
-24.40
-26.08
-27.53
-29.19
-31.36
-33.95
-36.44
-37.89
-37.33
-34.00
-27.70
-18.87
-8.52
2.11
11.92
20.16
26.59
31.22
34.25
35.73
35.68
34.10
31.21
27.49
23.64
20.34
18.01
16.76
16.33
16.40
16.77
17.41
18.42
19.83
21.43
22.77
23.39
23.03
21.81
20.21
18.81
17.96
17.59
17.26
16.34
14.34
11.11
6.84
1.92
-3.22
-8.24
-12.92
-17.08
-20.56
-23.31
-25.45
-27.32
-29.36
-31.90
-34.90
-37.78
-39.56
-39.05
-35.43
-28.49
-18.90
-7.95
2.78
12.05
19.18
24.16
27.40
29.39
30.47
30.76
30.35
29.45
28.50
28.05
28.47
29.81
31.76
33.81
35.51
36.55
36.79
36.20
34.73
32.29
28.81
24.30
18.88
12.81
6.37
-0.08
-6.26
-11.94
-17.00
-21.52
-25.67
-29.73
-33.91
-38.28
-42.76
-47.15
-51.39
-55.53
-59.80
-64.49
-69.76
-75.46
-81.12
-86.01
-89.33
-90.38
-88.70
-84.22
-77.16
-68.04
-57.52
-46.34
-35.25
-24.87
-15.73
-8.16
-2.36
1.62
3.79
4.25
3.26
1.29
-0.96
-2.73
-3.45
-2.97
-1.63
-0.14
0.73
0.39
-1.33
-4.27
-8.00
-11.91
-15.34
-17.65
-18.39
-17.42
-15.08
-12.08
-9.24
-7.13
-5.82
-4.92
-3.90
-2.51
-0.89
0.45
0.98
0.50
-0.76
-2.08
-2.59
-1.47
1.83
7.51
15.43
25.22
36.33
48.10
59.86
70.93
80.74
88.90
95.27
100.00
103.39
105.90
107.92
109.83
111.93
114.56
118.02
122.49
127.78
133.34
138.33
141.94
143.78
143.98
143.05
141.46
139.33
136.29
131.66
124.78
115.09
102.16
85.50
64.64
39.36
10.11
-21.82
-54.43
-85.47
-112.99
-135.63
-152.85
-164.65
-171.40
-173.69
-172.35
-168.46
-163.20
-157.61
-152.44
-148.10
-144.72
-142.10
-139.89
-137.68
-135.05
-131.75
-127.72
-123.17
-118.70
-115.14
-113.02
-112.40
-112.85
-113.65
-114.10
-113.92
-113.38
-113.59
-116.14
-122.06
-131.43
-143.31
-156.14
-168.29
-178.57
-186.44
-192.76
-199.08
-206.42
-215.02
-224.35
-233.48
-241.40
-247.04
-249.09
-247.16
-240.99
-229.53
-211.15
-183.89
-146.05
-96.59
-35.37
37.28
123.64
219.91
316.79
401.71
463.43
495.38
496.16
468.80
426.95
378.00
327.86
282.31
245.78
220.31
205.14
197.68
192.33
185.29
173.35
155.58
133.49
110.12
89.04
73.16
63.92
61.04
63.05
66.46
67.68
64.12
54.70
40.09
22.50
4.93
-9.77
-19.57
-24.76
-27.00
-28.66
-31.98
-38.33
-47.88
-59.71
-72.21
-83.36
-91.57
-95.64
-95.04
-90.08
-81.86
-71.83
-61.32
-51.12
-41.29
-31.64
-21.88
-11.97
-2.19
6.99
15.11
21.78
26.69
29.57
30.24
28.79
25.66
21.68
17.81
14.90
13.35
13.07
13.48
13.91
13.98
13.73
13.66
14.28
15.81
17.86
19.62
20.29
19.37
16.97
13.65
10.15
6.99
4.37
2.20
0.29
-1.47
-3.09
-4.32
-4.78
-3.94
-1.36
3.10
9.06
15.65
21.78
26.52
29.51
30.97
31.55
31.83
32.12
32.36
32.31
31.86
31.02
30.04
29.12
28.39
27.96
28.07
29.07
31.31
34.78
38.69
41.48
41.23
36.44
26.80
13.44
-1.39
-15.14
-25.86
-32.74
-35.96
-36.44
-35.38
-33.99
-33.49
-34.98
-39.32
-46.73
-56.59
-67.51
-77.75
-85.84
-91.04
-93.40
-93.52
-92.00
-89.13
-84.72
-78.32
-69.55
-58.42
-45.41
-31.37
-17.30
-3.94
8.30
19.40
29.34
37.99
45.02
50.12
53.26
54.84
55.70
56.67
58.35
60.64
62.96
64.50
64.64
63.28
60.61
57.17
53.45
49.99
46.86
43.94
40.82
37.15
32.91
28.37
24.67
23.40
26.57
35.01
48.13
63.53
77.60
86.78
88.15
80.98
66.49
47.71
27.22
8.39
-6.31
-16.32
