1499242978.00
64.000000
-0.00
-0.00
-0.00
-0.00
-0.00
-0.00
-0.00
-0.00
-0.00
-0.00
0.00
0.01
0.01
-0.00
-0.03
-0.05
-0.05
0.00
0.13
0.36
0.66
1.01
1.37
1.72
2.06
2.40
2.79
3.24
3.80
4.42
5.06
5.66
6.20
6.68
7.15
7.68
8.31
9.14
10.09
11.04
11.88
12.56
13.14
13.76
14.65
15.96
17.91
20.32
22.90
25.38
27.58
29.57
31.68
34.32
37.81
42.54
48.15
54.10
59.83
64.97
69.58
74.14
79.34
85.71
93.76
103.00
112.62
121.73
129.77
136.75
143.30
150.75
157.77
166.64
177.95
191.79
206.97
220.57
228.25
225.36
208.53
176.87
132.76
80.05
23.07
-34.94
-92.44
-149.16
-205.23
-260.37
-313.74
-363.87
-409.83
-450.91
-486.50
-515.74
-537.23
-549.22
-549.96
-538.37
-514.21
-478.67
-433.88
-382.45
-327.02
-269.84
-212.63
-156.66
-102.95
-52.37
-5.90
35.58
71.43
101.35
125.50
144.38
158.69
169.15
176.37
180.75
182.57
182.07
179.51
175.23
169.65
163.18
156.15
148.81
141.30
133.69
126.02
118.33
110.69
103.16
95.80
88.68
81.83
75.25
68.95
62.95
57.25
51.86
46.78
42.03
37.59
33.45
29.61
26.07
22.81
19.83
17.11
14.67
12.48
10.54
8.83
7.35
6.07
4.97
4.05
3.27
2.62
2.09
1.65
1.30
1.01
0.79
0.61
0.48
0.37
0.29
0.22
0.18
0.14
0.11
0.09
0.08
0.07
0.06
0.05
0.05
0.04
0.04
0.04
0.03
0.03
0.03
0.04
0.05
0.07
0.09
0.12
0.16
0.21
0.26
0.33
0.40
0.48
0.56
0.65
0.75
0.84
0.94
1.03
1.13
1.23
1.33
1.45
1.60
1.77
1.94
2.09
2.18
2.22
2.23
2.24
2.32
2.50
2.80
3.19
3.60
4.00
4.34
4.65
4.99
5.44
6.08
6.95
7.99
9.12
10.19
11.13
11.91
12.65
13.52
14.67
16.18
17.89
19.59
20.99
21.94
22.51
22.98
23.75
25.18
27.35
29.87
32.07
33.16
32.52
29.99
25.90
20.92
15.71
10.52
4.97
-1.74
-10.51
-21.88
-35.51
-50.29
-64.58
-76.77
-85.20
-90.12
-92.41
-93.47
-94.98
-98.45
-104.76
-113.32
-121.38
-124.67
-117.88
-97.64
-64.45
-23.42
18.27
53.26
77.24
90.36
96.25
99.84
105.16
114.07
125.95
138.31
147.29
148.51
138.38
115.43
81.41
41.36
2.21
-29.48
-49.41
-56.78
-53.97
-45.24
-35.16
-27.26
-23.36
-23.52
-26.51
-30.52
-33.97
-36.15
-37.38
-38.51
-39.87
-41.12
-41.36
-39.96
-37.31
-34.70
-34.12
-37.32
-45.03
-56.31
-68.87
-80.01
-87.70
-91.65
-93.06
-94.78
-100.51
-113.40
-134.86
-163.47
-194.77
-222.00
-237.86
-235.99
-213.47
-172.34
-119.55
-65.44
-21.01
5.52
11.76
-1.27
-25.32
-48.06
-58.38
-50.86
-27.13
6.78
44.82
84.12
125.27
170.48
219.67
268.76
310.90
339.44
350.68
344.92
325.62
297.79
266.79
236.73
209.70
185.94
164.62
144.97
127.37
113.32
104.28
100.51
99.86
98.25
91.63
77.83
57.65
34.27
11.72
-6.57
-18.79
-25.03
-27.10
-27.88
-30.31
-36.23
-45.63
-56.57
-66.13
-71.81
-72.79
-70.18
-66.19
-62.74
-60.38
-58.27
-55.08
-49.94
-43.07
-35.52
-28.55
-22.87
-18.47
-14.87
-11.58
-8.48
-5.81
-4.06
-3.66
-4.94
-8.11
-13.31
-20.68
-30.21
-41.52
-53.78
-65.65
-75.61
-82.37
-85.37
-85.04
-82.69
-80.10
-78.85
-79.77
-82.90
-87.68
-93.38
-99.25
-104.50
-108.21
-109.29
-106.93
-100.97
-92.18
-81.97
-71.66
-61.93
-52.58
-43.01
-32.86
-22.47
-12.75
-4.75
0.72
3.25
2.79
-0.39
-5.56
-11.36
-15.94
-17.52
-15.24
-9.55
-1.94
5.99
13.57
21.32
30.39
41.49
54.00
66.04
75.32
80.15
80.12
75.91
68.65
59.31
48.51
36.80
25.04
14.45
6.42
1.91
1.00
2.89
6.17
9.47
11.89
13.31
14.20
15.25
17.01
19.62
22.71
25.46
26.80
25.75
21.87
15.59
8.32
2.01
-1.50
-1.17
2.80
9.16
16.12
22.06
26.02
27.85
27.91
26.82
25.20
23.46
21.68
19.65
16.93
13.21
8.49
3.24
-1.87
-6.43
-10.56
-14.88
-19.95
-25.79
-31.54
-35.81
-37.35
-35.72
-31.49
-25.85
-19.95
-14.49
-9.53
-4.93
-0.74
2.65
4.63
4.82
3.29
0.58
-2.64
-5.91
-9.05
-12.15
-15.21
-17.95
-19.82
-20.19
-18.66
-15.41
-11.35
-7.90
-6.45
-7.92
-12.19
-18.23
-24.46
-29.45
-32.50
-33.76
-34.02
-34.20
-34.91
-36.26
-37.92
-39.48
-40.65
-41.44
-41.96
-42.10
-41.15
-37.80
-30.55
-18.35
-1.37
18.74
39.15
56.81
69.45
76.25
77.79
75.56
71.12
65.66
59.86
54.04
48.14
41.46
32.51
19.16
-0.20
-25.37
-53.16
-77.65
-92.05
-91.49
-75.40
-47.93
-16.43
11.71
31.84
43.22
48.00
48.94
47.30
42.24
31.81
14.75
-8.16
-34.07
-59.07
-79.52
-93.03
-98.53
-95.93
-85.76
-69.07
-47.51
-23.31
0.99
23.16
41.77
56.44
67.52
75.69
81.64
85.90
88.86
90.61
90.91
89.07
84.35
76.52
66.48
56.49
49.78
49.71
58.61
76.91
102.74
132.32
160.81
183.55
197.25
200.65
194.66
181.83
165.38
148.07
131.45
115.61
99.51
81.89
62.34
42.11
24.12
12.14
9.05
15.27
28.02
42.03
51.60
52.89
45.30
31.35
15.24
0.91
-9.19
-14.29
-14.77
-11.42
-5.39
1.66
7.40
9.29
5.62
-3.50
-15.78
-27.71
-36.03
-39.33
-38.48
-35.97
-34.41
-35.19
-38.11
-41.84
-44.84
-46.19
-45.66
-43.34
-39.28
-33.36
-25.65
-16.74
-7.88
-0.57
3.99
5.36
3.99
0.76
-3.47
-8.25
-13.66
-19.99
-27.47
-36.00
-45.24
-54.82
-64.56
-74.44
-84.35
-93.70
-101.18
-105.11
-104.09
-97.81
-87.33
-74.71
-62.08
-50.68
-40.60
-31.14
-21.75
-12.65
-4.81
0.56
2.89
2.61
1.02
-0.47
-0.99
-0.41
0.76
1.96
3.01
4.19
6.07
9.03
12.95
17.03
19.94
20.24
16.85
9.59
-0.71
-12.33
-23.33
-32.23
-38.57
-42.92
-46.45
-50.16
-54.39
-58.78
-62.60
-65.35
-66.95
-67.62
-67.52
-66.33
-63.35
-57.90
-49.84
-39.81
-29.05
-18.85
-10.02
-2.70
3.40
8.61
12.90
15.89
17.12
16.45
14.21
11.17
8.21
5.96
4.67
4.21
4.30
4.69
5.26
6.03
6.97
7.96
8.65
8.48
6.83
3.31
-1.98
-8.32
-14.59
-19.68
-23.01
-24.80
-25.89
-27.30
-29.68
-33.06
-36.92
-40.55
-43.38
-45.06
-45.35
-43.95
-40.59
-35.06
-27.50
-18.41
-8.47
1.49
10.73
18.54
24.30
27.65
28.55
27.38
24.74
21.18
16.90
11.73
5.33
-2.50
-11.73
-22.16
-33.49
-45.32
-56.97
-67.43
-75.67
-81.26
-84.78
-87.71
-91.57
-96.72
-101.79
-103.88
-99.82
-87.57
-67.20
-40.79
-11.52
17.39
43.48
65.17
81.55
92.17
96.98
96.48
91.77
84.25
75.23
65.57
55.53
44.95
33.55
21.27
8.36
-4.80
-17.92
-31.07
-44.52
-58.55
-73.04
-87.42
-100.84
-112.49
-122.08
-129.91
-136.59
-142.36
-146.39
-146.50
-139.40
-121.61
-90.59
-45.87
10.42
73.88
138.86
199.76
252.10
292.94
320.69
334.78
335.40
323.60
301.52
272.39
240.18
208.69
180.76
157.70
139.29
124.40
111.65
99.95
88.70
77.67
66.87
56.43
46.46
37.06
28.24
19.91
11.89
4.03
-3.64
-10.88
-17.28
-22.50
-26.40
-29.14
-31.06
-32.49
-33.61
-34.43
-34.87
-34.92
-34.74
-34.59
-34.76
-35.48
-36.97
-39.39
-42.90
-47.60
-53.45
-60.17
-67.17
-73.63
-78.67
-81.60
-82.12
-80.43
-77.07
-72.75
-68.03
-63.28
-58.60
-54.02
-49.58
-45.31
-41.21
-37.20
-33.28
-29.66
-26.91
-25.66
-26.31
-28.58
-31.50
-33.64
-33.71
-31.06
-25.96
-19.36
-12.58
-6.85
-2.98
-1.21
-1.23
-2.24
-3.23
-3.38
-2.36
-0.55
1.09
1.35
-0.68
-5.33
-12.09
-19.84
-27.13
-32.53
-35.00
-34.04
-29.80
-22.99
-14.77
-6.45
0.87
6.45
10.12
12.15
13.12
13.58
13.92
14.24
14.41
14.20
13.42
12.07
10.35
8.55
7.06
6.16
5.94
6.34
7.06
7.71
7.84
7.06
5.19
2.25
-1.45
-5.37
-8.88
-11.47
-12.93
-13.48
-13.69
-14.26
-15.68
-18.08
-21.11
-24.25
-27.11
-29.61
-31.94
-34.27
-36.41
-37.65
-36.98
-33.53
-27.00
-17.80
-6.72
5.54
18.83
33.57
50.38
69.42
89.91
110.05
127.35
139.38
144.42
141.96
132.71
118.34
100.97
82.80
65.74
51.29
40.33
33.01
28.52
25.02
20.10
11.55
-1.69
-18.82
-37.41
-54.48
-67.95
-77.59
-85.03
-92.54
-101.58
-111.81
-121.23
-127.25
-127.82
-122.05
-109.98
-92.06
-68.91
-41.63
-12.46
15.16
37.25
50.74
54.70
50.68
41.97
32.04
23.16
15.96
9.78
3.71
-2.61
-8.83
-14.27
-18.60
-22.20
-26.08
-31.27
-38.19
-46.26
-54.08
-59.98
-62.83
-62.51
-60.00
-57.00
-55.27
-56.09
-59.88
-66.19
-74.01
-82.10
-89.52
-96.01
-102.10
-108.89
-117.61
-128.88
-142.21
-156.01
-167.98
-176.05
-179.09
-177.14
-170.78
-160.23
-144.68
-122.43
-91.99
-53.37
-9.08
36.10
76.40
106.89
125.05
131.46
129.28
122.98
116.99
114.48
116.96
124.09
133.70
141.94
144.11
135.97
115.85
86.61
55.68
33.05
27.16
40.84
69.83
104.45
133.97
151.16
154.76
148.86
140.11
134.71
136.56
147.09
165.73
190.65
219.28
248.90
277.33
303.43
326.94
347.30
362.78
370.22
366.20
349.05
319.80
281.35
236.50
186.41
131.01
71.46
12.10
-39.87
-77.55
-98.16
-104.61
-103.63
-101.72
-101.88
-103.28
-103.98
-103.96
-106.19
-114.69
-130.94
-151.80
-170.60
-180.64
-178.73
-166.32
-147.69
-127.18
-107.50
-89.65
-73.88
-60.21
-47.94
-34.87
-17.67
6.48
37.78
72.27
102.61
120.49
119.58
97.27
54.58
-5.05
-76.79
-154.58
-230.88
-296.66
-343.00
-363.83
-358.25
-331.10
-291.12
-247.67
-207.51
-173.12
-143.27
-115.07
-86.12
-55.96
-25.91
2.12
27.10
49.65
71.78
95.47
120.86
145.06
162.55
167.55
157.17
133.97
105.91
83.43
74.79
82.31
101.54
124.00
141.38
148.97
146.60
136.40
119.73
95.28
59.37
8.10
-60.07
-142.65
-233.02
-321.70
-398.30
-453.88
-482.96
-484.97
-464.26
-428.40
-385.41
-341.22
-298.28
-256.05
-212.89
-167.95
-122.30
-78.86
-41.22
-12.26
6.88
17.20
21.30
22.76
25.18
31.64
44.27
63.88
89.51
118.10
144.67
163.34
169.16
160.18
138.36
109.24
79.77
55.83
40.56
34.46
36.57
45.89
61.56
82.16
104.96
126.24
142.57
152.66
158.11
162.64
170.00
181.73
196.26
209.54
217.16
216.30
206.69
190.18
169.14
145.05
118.17
88.34
56.23
24.21
-4.20
-25.61
-38.57
-44.08
-44.64
-42.28
-37.03
-27.08
-10.56
12.08
37.02
58.08
69.45
68.39
56.18
37.14
16.28
-2.44
-16.79
-25.81
-28.87
-25.66
-16.38
-2.37
13.91
29.68
42.74
52.10
57.79
60.18
59.37
55.24
48.24
40.09
33.83
32.70
38.72
51.52
68.45
85.83
100.46
110.25
113.87
110.02
97.24
74.69
43.42
7.08
-28.90
-59.18
-80.51
-92.70
-97.97
-99.24
-98.55
-96.45
-92.54
-86.41
-78.29
-69.09
-59.84
-51.25
-43.53
-36.57
-30.04
-23.47
-16.38
-8.53
-0.10
8.06
14.64
18.32
18.72
16.93
15.47
17.17
23.85
35.19
48.64
60.69
68.38
70.32
66.90
59.17
47.55
31.30
9.05
-20.08
-55.33
-93.91
-131.54
-163.42
-184.94
-192.18
-182.07
-152.74
-104.22
-39.29
36.36
114.70
187.10
246.12
286.91
307.41
307.92
290.50
258.83
218.18
174.91
135.14
103.09
80.06
64.74
54.39
46.61
40.23
35.28
32.25
31.56
33.47
38.29
46.33
57.24
69.37
79.98
86.18
86.41
81.14
72.14
60.86
47.24
29.97
8.24
-16.44
-39.95
-56.89
-63.30
-58.57
-45.82
-30.18
-16.51
-7.63
-3.93
-4.56
-9.03
-18.40
-35.44
-63.56
-105.05
-159.07
-220.80
-281.95
-332.76
-365.14
-375.10
-363.46
-334.49
-293.20
-243.69
-189.50
-135.43
-89.02
-59.48
-53.93
-73.05
-108.94
-147.16
-172.08
-172.83
-146.36
-96.49
-30.09
46.59
129.16
213.63
294.34
363.43
412.85
437.73
438.73
421.72
395.18
366.44
339.30
313.98
288.57
261.36
232.21
202.29
173.05
144.88
116.39
84.63
46.35
-0.36
-53.99
-108.58
-154.48
-180.85
-179.39
-147.46
-89.36
-14.90
63.64
135.06
191.60
229.52
248.39
249.93
237.15
213.94
184.84
154.56
127.25
105.58
90.29
80.21
72.73
64.75
53.63
38.13
18.67
-2.90
-24.38
-44.35
-63.00
-82.14
-104.40
-131.96
-165.48
-203.66
-243.92
-283.32
-319.81
-352.86
-383.35
-413.11
-444.37
-479.42
-520.32
-568.07
-621.56
-676.68
-726.55
-763.27
-780.50
-775.77
-751.26
-712.59
-666.32
-617.61
-569.12
-521.44
-474.21
-427.01
-379.16
-329.11
-274.13
-211.06
-138.10
-56.71
27.45
105.45
167.29
205.49
218.09
209.94
191.50
175.59
173.23
190.17
225.37
271.70
318.68
355.88
375.64
374.85
355.06
321.57
281.50
241.59
206.21
176.56
151.21
127.91
105.53
84.95
68.31
57.19
51.04
47.17
42.37
35.47
28.62
26.71
34.56
54.30
84.25
120.25
158.28
196.30
234.07
271.26
305.40
331.46
343.55
337.75
313.99
275.82
228.25
175.40
119.55
62.22
5.97
-44.47
-83.30
-106.43
-114.27
-112.47
-110.07
-115.59
-133.54
-162.77
-197.55
-230.50
-255.51
-269.64
-273.02
-267.70
-256.16
-240.41
-221.84
-201.49
-180.39
-159.63
-140.22
-122.77
-107.32
-93.27
-79.56
-65.03
-48.96
-31.61
-14.12
1.82
14.82
24.46
31.50
37.51
44.12
52.17
61.52
71.39
81.24
91.38
102.97
117.22
134.12
151.47
164.85
168.74
158.26
130.60
85.85
26.93
-40.80
-110.10
-172.77
-220.86
-248.24
-252.13
-233.99
-199.05
-154.75
-108.72
-66.99
-33.29
-9.11
5.71
12.56
13.67
11.82
9.84
10.05
13.67
20.68
30.16
40.70
50.97
59.97
67.24
72.73
76.68
79.42
81.22
82.15
82.10
80.89
78.42
74.85
70.66
66.61
63.45
61.78
61.75
63.02
64.94
66.76
67.99
68.46
68.37
68.00
67.55
67.02
66.18
64.79
62.67
59.88
56.67
53.38
50.33
47.78
45.85
44.58
43.82
43.31
42.50
40.64
36.84
30.34
20.77
8.35
-6.19
-21.95
-38.24
-54.60
-70.62
-85.35
-96.95
-102.87
-100.58
-88.61
-67.40
-39.45
-8.56
21.17
46.55
65.93
79.18
87.24
91.58
93.68
94.65
95.10
95.10
94.25
91.92
87.52
80.77
71.90
61.65
51.08
41.41
33.69
28.68
26.62
27.28
29.90
33.38
36.46
37.87
36.51
31.58
22.57
9.40
-7.47
-26.99
-47.52
-66.97
-83.20
-94.36
-99.27
-97.48
-89.07
-74.47
-54.31
-29.58
-1.88
26.51
52.82
74.40
89.48
97.64
99.75
97.48
92.42
85.54
76.98
66.33
53.12
37.30
19.44
0.77
-16.97
-31.80
-41.88
-45.94
-43.60
-35.61
-23.68
-10.06
2.97
13.63
20.87
24.30
23.97
20.05
12.69
1.84
-12.69
-31.21
-53.83
-80.06
-108.22
-135.16
-156.41
-166.97
-162.68
-141.72
-105.58
-59.06
-9.15
36.87
73.36
97.54
109.64
112.05
107.99
100.41
91.40
82.24
73.80
66.81
61.85
59.10
58.16
58.09
57.76
56.28
53.39
49.41
44.97
40.68
36.74
32.84
28.35
22.66
15.59
7.45
-1.00
-8.99
-16.16
-22.82
-29.78
-37.91
-47.49
-57.89
-67.69
-75.23
-79.34
-79.76
-77.14
-72.56
-66.99
-60.93
-54.39
-47.26
-39.59
-31.91
-25.15
-20.59
-19.55
-23.05
-31.24
-43.08
-56.28
-68.02
-75.81
-78.32
-75.43
-67.67
-55.56
-39.26
-18.72
6.06
35.04
68.30
106.21
148.96
195.73
244.15
290.39
330.01
359.30
376.54
382.34
379.06
369.79
357.41
343.69
329.03
312.60
292.90
268.74
240.25
209.49
180.05
155.54
137.89
126.10
116.62
104.76
86.37
58.84
21.21
-25.96
-80.58
-138.59
-193.56
-237.15
-260.61
-257.13
-223.80
-162.54
-79.80
14.67
109.75
194.65
260.56
301.94
317.53
310.46
287.63
258.16
231.17
213.70
209.08
216.40
231.09
246.38
255.70
254.78
242.86
222.62
198.53
174.83
153.96
136.38
121.33
107.87
95.57
84.45
74.53
65.44
56.46
46.94
36.62
25.87
15.47
6.16
-1.90
-9.32
-17.24
-26.79
-38.49
-52.02
-66.37
-80.40
-93.51
-105.96
-118.76
-133.07
-149.52
-167.78
-186.55
-204.28
-219.89
-233.60
-247.07
-262.79
-283.01
-308.40
-337.31
-366.17
-390.97
-409.12
-420.74
-428.50
-436.26
-447.21
-462.75
-482.61
-505.41
-529.07
-550.37
-564.48
-565.57
-549.16
-515.03
-468.59
-419.31
-376.26
-343.29
-317.04
-289.11
-250.93
-198.66
-134.38
-63.48
10.18
87.11
171.10
264.92
365.44
462.40
541.23
589.10
600.11
577.04
529.60
470.66
413.11
367.92
343.26
343.36
367.10
407.24
451.76
487.58
505.20
501.76
480.84
449.15
412.19
371.98
327.39
276.49
219.22
157.96
96.44
37.51
-18.13
-71.84
-125.89
-181.86
-239.69
-297.86
-354.73
-409.64
-463.00
-515.18
-564.81
-607.96
-639.05
-653.44
-650.15
-633.03
-609.39
-586.67
-569.03
-555.91
-543.02
-525.23
-499.44
-465.77
-426.95
-386.38
-346.54
-308.46
-272.36
-238.56
-207.89
-181.22
-158.34
-137.06
-113.53
-83.96
-47.12
-6.07
32.13
59.28
69.97
64.76
50.45
37.28
34.47
46.26
70.65
100.85
128.54
146.95
152.51
144.91
126.23
99.94
70.37
42.17
19.65
5.90
1.85
6.08
15.17
24.92
31.69
33.58
30.92
25.96
21.94
21.76
26.90
36.89
49.62
62.16
71.94
77.49
78.79
77.01
73.86
70.91
69.13
68.77
69.39
70.21
70.53
70.19
69.91
71.31
76.73
88.25
106.40
129.11
151.25
165.29
163.03
138.17
88.92
19.66
-59.48
-134.95
-193.72
-226.96
-232.11
-212.53
-175.25
-128.31
-78.77
-32.22
6.92
35.18
50.50
53.24
46.68
36.40
28.38
26.70
32.11
42.26
53.30
61.75
66.04
66.82
66.02
65.61
66.50
68.24
69.38
68.33
64.32
57.78
50.22
43.71
40.03
40.20
44.15
50.89
58.81
66.15
71.39
73.72
73.21
70.87
68.40
67.53
69.21
72.92
76.44
76.46
69.90
55.41
34.28
10.25
-11.90
-28.36
-37.81
-41.79
-43.94
-48.20
-57.21
-71.16
-87.62
-102.14
-109.59
-105.82
-89.32
-62.19
-29.84
0.69
23.24
34.77
36.35
32.36
28.51
29.26
36.18
47.50
59.10
66.72
67.99
63.71
57.53
54.43
58.41
70.50
87.90
104.88
115.04
113.90
100.72
78.67
53.53
31.55
17.49
13.26
17.66
26.99
36.44
41.66
40.23
32.39
21.06
10.82
6.78
12.84
30.11
56.04
84.57
107.22
115.02
100.94
62.34
2.60
-68.98
-139.20
-194.32
-223.79
-222.82
-193.20
-142.21
-80.41
-18.77
33.57
70.87
91.26
96.21
89.51
75.96
60.24
46.22
36.54
32.49
33.83
38.83
44.38
47.05
44.54
36.90
26.72
17.98
13.82
14.75
18.11
19.20
13.58
-0.77
-22.57
-47.66
-70.67
-86.75
-92.59
-86.76
-69.49
-42.50
-8.83
26.92
58.93
81.00
88.10
77.99
52.24
15.97
-23.52
-58.79
-84.21
-96.84
-96.57
-85.46
-66.89
-44.66
-22.42
-3.09
11.64
21.24
26.07
26.81
23.87
17.31
7.11
-6.03
-20.29
-32.66
-39.69
-38.52
-28.03
-9.44
13.89
37.35
56.44
68.10
71.41
67.26
57.63
44.66
30.28
16.21
4.21
-3.98
-7.22
-5.46
-0.14
6.47
12.24
16.00
18.05
19.58
21.72
24.82
28.30
31.05
32.25
32.00
31.47
32.62
37.39
46.71
59.65
73.28
83.50
86.28
79.24
62.59
39.16
13.49
-9.61
-26.43
-35.26
-36.46
-32.06
-24.98
-18.38
-14.89
-16.05
-21.90
-30.86
-40.22
-46.87
-48.35
-43.67
-33.65
-20.66
-7.91
1.49
5.46
3.53
-3.05
-11.69
-19.21
-22.91
-21.33
-14.70
-4.66
6.53
16.85
25.20
31.51
36.21
39.66
41.74
41.93
39.72
35.07
28.60
21.29
14.12
7.70
2.26
-2.07
-5.03
-6.25
-5.48
-2.98
0.36
3.38
5.13
5.37
4.54
3.41
2.43
1.55
0.24
-2.04
-5.51
-10.02
-15.28
-21.03
-26.95
-32.37
-36.18
-37.13
-34.62
-29.44
-23.82
-20.61
-21.85
-27.55
-35.59
-42.82
-46.63
-46.21
-42.55
-37.41
-31.97
-26.16
-18.94
-9.34
2.62
15.73
28.20
38.59
46.34
51.68
55.01
56.16
54.29
48.49
38.86
27.14
16.63
10.82
11.73
18.60
27.94
35.03
36.22
30.78
21.35
12.52
8.48
10.78
17.56
24.61
27.40
23.38
13.05
-0.40
-12.63
-20.02
-21.09
-16.77
-9.74
-3.21
0.20
-0.80
-5.95
-13.59
-21.21
-26.21
-26.74
-22.48
-14.82
-6.47
-0.34
1.46
-1.48
-7.88
-15.46
-21.83
-25.29
-25.21
-21.98
-16.49
-9.75
-2.43
5.15
12.83
20.28
26.65
30.60
30.81
26.67
18.92
9.68
1.87
-2.05
-1.18
3.46
9.37
13.84
15.16
13.33
9.88
6.84
5.67
6.50
8.18
9.05
7.87
4.55
0.09
-3.99
-6.37
-6.59
-5.13
-3.09
-1.72
-1.88
-3.81
-7.15
-11.17
-15.15
-18.63
-21.38
-23.38
-24.53
-24.64
-23.41
-20.61
-16.22
-10.48
-3.86
3.10
9.86
15.94
20.92
24.45
26.24
26.18
24.42
21.31
17.40
13.34
9.73
7.05
5.51
4.93
4.70
4.00
2.10
-1.23
-5.52
-9.67
-12.42
-12.92
-11.10
-7.73
-4.00
-1.00
0.71
1.26
1.16
0.94
0.85
0.87
0.84
0.72
0.60
0.57
0.54
0.06
-1.43
-4.31
-8.49
-13.31
-17.80
-21.09
-22.80
-23.19
-22.88
-22.47
-22.18
-21.69
-20.34
-17.46
-12.70
-6.20
1.36
8.89
15.07
18.74
19.15
16.27
10.81
4.03
-2.67
-8.21
-12.06
-14.24
-15.10
-15.09
-14.62
-14.04
-13.63
-13.63
-14.17
-15.17
-16.44
-17.84
-19.41
-21.59
-25.02
-30.07
-36.45
-42.91
-47.53
-48.45
-44.65
-36.33
-24.81
-11.83
1.14
13.41
25.11
36.86
49.32
62.91
77.66
93.20
108.68
122.89
134.28
141.27
142.69
138.06
127.71
112.57
93.92
73.06
51.23
29.59
9.18
-9.04
-24.22
-35.62
-42.63
-44.93
-42.79
-37.51
-31.33
-26.99
-26.69
-31.24
-39.68
-49.61
-58.08
-62.53
-61.30
-53.72
-40.08
-21.56
-0.52
19.56
34.61
41.08
37.19
23.70
3.73
-18.28
-37.92
-51.78
-57.91
-55.82
-46.46
-32.02
-15.78
-1.55
7.36
9.11
3.96
-5.85
-17.11
-26.87
-33.38
-36.27
-36.16
-33.94
-30.27
-25.58
-20.25
-14.70
-9.35
-4.40
0.07
3.81
6.05
5.48
0.80
-8.36
-20.65
-33.00
-41.47
-42.79
-35.60
-21.19
-3.14
13.87
25.66
29.92
26.90
19.08
10.04
3.05
0.01
1.31
6.48
14.97
26.19
38.53
48.47
51.01
41.95
21.00
-6.54
-31.14
-43.44
-39.35
-22.50
-2.60
9.81
8.92
-3.65
-20.46
-32.91
-35.92
-29.87
-19.21
-9.17
-2.86
-0.38
0.17
0.78
2.28
3.99
4.57
3.05
-0.40
-4.42
-7.08
-6.78
-3.22
2.19
6.69
7.40
3.02
-4.99
-12.56
-14.66
-7.88
7.40
26.65
42.96
50.22
45.98
32.45
15.17
0.19
-8.68
-11.15
-9.73
-7.93
-8.21
-11.12
-15.56
-19.75
-22.34
-22.89
-21.72
-19.44
-16.56
-13.30
-9.75
-5.93
-1.89
2.34
6.83
11.86
17.84
25.05
33.41
42.21
50.16
55.48
56.38
51.65
41.12
26.13
9.23
-6.42
-18.05
-24.17
-24.93
-21.81
-16.91
-12.10
-8.58
-6.83
-6.87
-8.56
-11.64
-15.58
-19.53
-22.45
-23.48
-22.26
-19.05
-14.51
-9.33
-4.08
0.74
4.48
6.24
5.32
1.74
-3.17
-6.94
-6.92
-1.59
8.39
20.14
29.71
33.79
31.03
22.54
11.11
-0.08
-8.58
-13.19
-13.96
-11.88
-8.54
-5.86
-5.52
-8.40
-13.95
-20.14
-24.10
-23.21
-16.30
-4.19
10.57
24.62
34.69
38.42
34.81
24.46
9.48
-6.89
-21.11
-30.41
-33.66
-31.68
-26.70
-21.20
-16.87
-13.98
-11.64
-8.63
-4.31
0.91
5.71
8.66
8.88
6.57
2.91
-0.53
-2.42
-2.12
0.14
3.48
6.66
8.32
7.37
3.35
-3.19
-10.58
-16.27
-17.56
-12.61
-1.33
14.29
30.57
43.07
47.96
43.23
29.54
10.31
-9.22
-23.57
-28.88
-24.22
-11.76
4.25
19.29
30.11
35.59
36.34
33.83
29.43
23.97
17.90
11.74
6.32
2.59
1.14
1.62
2.70
2.37
-1.28
-9.10
-20.40
-32.95
-43.74
-50.09
-50.65
-45.67
-36.84
-26.33
-16.00
-6.72
1.53
9.24
16.69
23.49
28.48
30.20
27.59
20.80
11.41
2.10
-4.35
-6.31
-3.95
0.92
5.87
9.13
10.37
10.54
10.98
12.34
14.12
14.93
13.51
9.46
3.58
-2.68
-8.11
-12.45
-16.51
-21.70
-29.07
-38.50
-48.40
-56.28
-59.72
-57.34
-49.19
-36.65
-21.74
-6.57
6.99
17.16
22.37
21.55
14.92
4.51
-5.87
-11.75
-9.66
1.23
18.62
37.94
54.19
63.86
65.99
62.09
54.88
46.94
39.57
32.78
25.95
18.87
12.20
7.44
6.01
8.18
12.49
16.11
15.98
10.45
0.08
-12.51
-23.89
-31.47
-34.53
-34.18
-32.30
-30.23
-28.02
-24.66
-19.02
-10.80
-1.11
7.88
13.70
14.49
9.63
-0.01
-12.31
-24.30
-32.90
-35.65
-31.47
-20.99
-6.61
8.29
20.33
27.24
28.59
25.72
20.99
16.71
14.24
13.63
13.94
13.98
12.85
10.26
6.39
1.71
-3.29
-8.05
-12.02
-14.80
-16.22
-16.56
-16.49
-16.93
-18.70
-22.07
-26.51
-30.75
-33.08
-32.11
-27.49
-20.17
-12.24
-5.95
-2.59
-1.89
-2.12
-1.17
1.96
6.38
9.66
9.40
5.00
-1.41
-5.55
-3.08
8.15
26.63
47.54
64.68
72.90
70.00
57.29
38.76
19.37
3.41
-6.65
-10.42
-9.22
-5.35
-1.21
1.44
1.66
-0.67
-5.24
-11.65
-19.31
-27.45
-34.89
-40.24
-42.45
-41.23
-37.22
-31.36
-24.26
-15.70
-5.09
7.55
20.46
30.09
32.29
24.44
7.32
-14.56
-34.50
-46.49
-47.80
-40.01
-27.85
-16.57
-9.42
-6.44
-5.13
-2.40
3.50
12.04
20.98
27.75
30.91
30.76
28.86
26.99
25.96
25.19
23.17
18.35
10.10
-0.95
-13.24
-24.92
-34.37
-40.50
-42.75
-40.97
-35.51
-27.35
-18.14
-9.80
-4.00
-1.46
-1.71
-3.27
-4.45
-4.19
-2.65
-1.16
-1.64
-5.52
-12.60
-20.45
-24.95
-21.77
-8.58
13.58
40.23
65.09
82.65
90.24
88.48
80.15
68.35
54.98
40.56
25.19
9.67
-4.10
-13.74
-17.64
-16.02
-10.91
-5.26
-1.69
-1.47
-4.26
-8.51
-12.35
-14.34
-13.93
-11.47
-7.99
-4.74
-2.73
-2.45
-3.79
-6.17
-8.76
-10.88
-12.15
-12.66
-12.77
-12.89
-13.25
-13.78
-14.21
-14.30
-14.02
-13.62
-13.52
-14.11
-15.51
-17.54
-19.70
-21.36
-21.89
-20.87
-18.20
-14.08
-9.00
-3.60
1.50
5.90
9.39
11.99
13.84
15.07
15.74
15.92
15.67
15.11
14.41
13.62
12.73
11.61
10.14
8.29
6.19
4.08
2.22
0.82
-0.10
-0.68
-1.07
-1.46
-1.84
-2.13
-2.24
-2.11
-1.76
-1.29
-0.77
-0.29
0.09
0.25
0.07
-0.55
-1.59
-2.88
-4.17
-5.24
-6.00
-6.49
-6.78
-6.88
-6.62
-5.73
-4.02
-1.53
1.43
4.36
6.76
8.31
8.91
8.71
8.00
7.11
6.28
5.60
5.06
4.50
3.78
2.85
1.78
0.78
0.10
-0.14
0.11
0.76
1.69
2.84
4.16
5.60
7.05
8.29
9.11
9.39
9.12
8.45
7.61
6.76
5.95
5.10
4.06
2.69
0.98
-0.97
-3.02
-5.04
-6.95
-8.75
-10.47
-12.11
-13.62
-14.86
-15.64
-15.73
-14.91
-13.10
-10.37
-7.00
-3.39
0.05
3.03
5.40
7.09
8.09
8.34
7.83
6.69
5.24
3.90
3.03
2.77
3.01
3.42
3.67
3.61
3.29
2.96
2.84
3.06
3.59
4.27
4.90
5.35
5.57
5.54
5.22
4.54
3.40
1.76
-0.28
-2.45
-4.37
-5.74
-6.46
-6.70
-6.84
-7.31
-8.33
-9.86
-11.55
-12.88
-13.34
-12.63
-10.69
-7.72
-4.09
-0.21
3.55
6.87
9.53
11.42
12.48
12.77
12.40
11.57
10.50
9.42
8.47
7.69
7.05
6.50
6.01
5.61
5.34
5.24
5.30
5.44
5.59
5.63
5.44
4.94
4.08
2.89
1.46
-0.05
-1.50
-2.79
-3.91
-4.91
-5.89
-6.95
-8.19
-9.67
-11.38
-13.26
-15.20
-16.99
-18.36
-19.01
-18.66
-17.08
-14.20
-10.14
-5.24
0.00
5.01
9.33
12.66
14.91
16.13
16.45
16.02
15.04
13.76
12.47
11.44
10.76
10.36
10.00
9.43
8.46
7.09
5.51
4.00
2.84
2.30
2.47
3.31
4.62
6.01
6.98
7.09
6.07
4.00
1.23
-1.73
-4.48
-6.88
-9.00
-11.02
-13.04
-14.98
-16.65
-17.90
-18.81
-19.68
-20.88
-22.56
-24.47
-25.97
-26.26
-24.79
-21.41
-16.57
-11.02
-5.64
-1.07
2.33
4.57
5.90
6.63
7.05
7.31
7.46
7.43
7.13
6.61
5.99
5.49
5.31
5.47
5.91
6.45
6.99
7.51
8.01
8.45
8.68
8.52
7.83
6.64
5.20
3.85
2.90
2.46
2.41
2.46
2.28
1.67
0.60
-0.75
-2.11
-3.21
-3.98
-4.51
-5.04
-5.85
-7.10
-8.78
-10.71
-12.66
-14.35
-15.57
-16.14
-15.95
-14.90
-13.01
-10.37
-7.17
-3.68
-0.22
2.93
5.59
7.65
9.13
10.14
10.78
11.14
11.22
11.01
10.53
9.84
9.06
8.31
7.68
7.19
6.82
6.56
6.37
6.22
6.03
5.72
5.22
4.55
3.77
3.02
2.39
1.87
1.35
0.73
-0.04
-0.89
-1.71
-2.40
-2.93
-3.40
-3.91
-4.52
-5.25
-6.06
-6.95
-7.93
-9.03
-10.25
-11.52
-12.75
-13.76
-14.37
-14.39
-13.64
-11.98
-9.41
-6.10
-2.37
1.39
4.82
7.66
9.83
11.38
12.41
12.98
13.09
12.69
11.79
10.48
8.99
7.60
6.50
5.77
5.35
5.11
5.02
5.14
5.58
6.34
7.26
7.97
8.09
7.41
6.00
4.15
2.27
0.63
-0.63
-1.59
-2.38
-3.14
-3.94
-4.78
-5.61
-6.36
-6.91
-7.15
-7.03
-6.55
-5.89
-5.36
-5.32
-6.08
-7.72
-10.02
-12.50
-14.52
-15.50
-15.03
-13.06
-9.93
-6.25
-2.78
-0.12
1.46
2.16
2.48
2.96
3.85
4.98
5.87
6.04
5.35
4.14
3.05
2.76
3.62
5.53
8.01
10.52
12.59
14.00
14.70
14.71
14.05
12.73
10.83
8.53
6.14
4.00
2.29
0.98
-0.20
-1.59
-3.42
-5.71
-8.27
-10.80
-13.04
-14.79
-15.91
-16.28
-15.80
-14.57
-12.93
-11.52
-11.13
-12.41
-15.69
-20.83
-27.25
-33.95
-39.60
-42.70
-41.78
-35.73
-24.20
-7.85
11.71
32.18
51.07
66.29
76.48
81.21
80.95
76.71
69.75
61.30
52.29
43.33
34.70
26.50
18.75
11.55
5.11
-0.13
-3.61
-4.81
-3.45
0.23
5.51
11.25
16.17
19.15
19.42
16.70
11.23
3.75
-4.60
-12.46
-18.57
-22.13
-23.09
-22.03
-20.00
-18.02
-16.80
-16.54
-17.05
-17.96
-18.99
-20.00
-20.98
-21.90
-22.64
-22.97
-22.61
-21.44
-19.52
-17.18
-14.82
-12.81
-11.25
-10.02
-8.85
-7.59
-6.33
-5.36
-4.99
-5.29
-5.99
-6.57
-6.60
-5.95
-4.86
-3.72
-2.78
-1.96
-0.95
0.49
2.31
4.04
5.08
5.00
3.94
2.65
2.27
3.85
7.75
13.34
19.04
22.80
22.73
17.83
8.32
-4.31
-17.74
-29.41
-37.22
-40.01
-37.84
-31.84
-23.83
-15.68
-8.75
-3.55
0.25
3.36
6.38
9.31
11.60
12.50
11.55
9.00
5.72
2.78
0.94
0.31
0.40
0.48
0.03
-1.01
-2.28
-3.22
-3.35
-2.59
-1.24
0.09
0.80
0.59
-0.28
-0.94
-0.14
3.24
9.61
18.15
26.78
32.69
33.19
26.66
13.36
-4.29
-22.03
-34.73
-37.98
-29.71
-11.25
12.85
36.28
53.30
60.79
59.05
51.09
40.68
30.42
20.76
10.65
-0.95
-13.61
-25.18
-32.86
-34.84
-31.41
-24.77
-17.71
-12.17
-8.40
-5.45
-2.36
0.89
3.20
3.20
0.35
-4.31
-8.60
-10.35
-8.62
-4.26
0.52
3.24
2.25
-2.73
-10.72
-20.02
-28.90
-35.83
-39.48
-38.64
-32.48
-21.35
-7.49
5.14
12.25
11.28
3.15
-7.76
-15.41
-15.07
-5.61
10.18
27.39
41.87
52.23
59.66
65.95
71.43
74.18
71.40
61.42
44.88
24.32
2.60
-18.36
-37.68
-54.56
-67.15
-72.58
-68.21
-53.49
-31.07
-6.22
15.00
27.81
30.11
22.84
9.38
-5.14
-15.05
-15.67
-5.23
13.86
35.30
51.16
55.37
46.80
30.01
13.06
3.46
4.31
12.88
22.41
26.01
20.45
7.59
-7.05
-17.70
-21.43
-19.34
-15.31
-13.33
-15.21
-19.95
-24.74
-26.80
-24.91
-19.95
-14.34
-11.12
-12.75
-19.95
-30.77
-40.21
-41.30
-27.54
3.92
49.74
100.40
143.23
166.75
164.60
136.97
89.37
30.00
-32.29
-88.97
-132.14
-155.28
-154.97
-132.75
-95.62
-54.23
-19.09
3.15
11.47
9.62
3.24
-3.14
-7.56
-10.21
-12.13
-13.84
-15.22
-16.06
-16.56
-17.29
-18.45
-18.95
-16.20
-6.94
11.16
37.60
67.89
94.11
106.96
99.01
68.07
18.96
-37.12
-86.04
-115.68
-120.47
-103.23
-73.48
-42.96
-20.56
-9.35
-6.85
-7.78
-7.74
-5.29
-1.78
0.47
0.34
-1.17
-1.79
0.39
5.55
11.84
16.26
16.24
10.96
1.87
-7.98
-15.27
-17.80
-15.32
-9.35
-2.19
4.31
9.47
13.66
17.42
20.48
21.40
18.19
9.71
-3.10
-17.01
-27.66
-31.57
-27.87
-18.74
-8.16
0.07
4.17
4.93
4.90
6.70
11.58
18.87
26.60
32.74
36.27
37.50
37.68
38.07
39.22
40.71
41.54
40.61
37.27
31.59
24.33
16.70
10.24
6.43
6.52
11.07
19.48
29.78
38.80
42.88
38.83
25.05
2.16
-26.78
-56.72
-81.71
-96.39
-97.64
-85.65
-64.18
-39.38
-17.84
-4.31
-0.22
-3.52
-10.00
-15.33
-16.88
-14.31
-9.09
-3.25
1.84
5.77
8.77
11.02
12.19
11.60
8.83
4.26
-0.90
-5.07
-7.10
-6.87
-5.20
-3.42
-2.51
-2.65
-3.17
-2.97
-1.29
1.87
5.58
8.26
8.39
5.10
-1.31
-9.44
-17.11
-22.08
-22.84
-19.10
-11.94
-3.45
4.07
9.00
11.08
11.50
12.46
16.06
23.26
33.42
44.36
53.36
58.28
58.36
54.42
48.21
41.58
35.72
30.84
26.36
21.37
15.11
7.24
-2.08
-12.01
-21.01
-26.97
-27.79
-22.41
-11.84
0.58
9.86
11.28
2.53
-14.93
-36.19
-54.76
-65.22
-65.26
-56.35
-42.73
-29.46
-20.40
-17.04
-18.55
-22.65
-26.74
-29.04
-28.99
-27.06
-24.14
-20.87
-17.32
-13.03
-7.59
-1.11
5.45
10.54
12.51
10.31
4.06
-4.84
-13.92
-20.51
-22.62
-19.75
-13.10
-4.83
2.85
8.53
11.76
12.56
10.84
6.18
-1.70
-12.19
-23.43
-32.71
-37.60
-37.01
-31.61
-23.43
-14.71
-7.00
-0.66
4.89
10.55
16.91
23.96
31.11
37.50
42.45
45.75
47.60
48.33
47.92
45.71
40.68
32.14
20.45
7.42
-4.24
-12.13
-15.28
-14.75
-12.97
-12.55
-15.05
-20.35
-26.87
-32.29
-34.43
-31.90
-24.56
-13.44
-0.62
11.50
20.96
26.95
30.21
32.43
35.39
39.84
45.07
49.28
50.53
47.64
40.61
30.40
18.37
5.82
-6.26
-17.13
-26.21
-33.11
-37.66
-39.97
-40.29
-38.87
-35.79
-31.03
-24.74
-17.46
-10.19
-4.12
-0.18
1.28
0.56
-1.66
-4.69
-8.19
-12.05
-16.10
-19.83
-22.24
-22.12
-18.50
-11.17
-0.81
11.10
22.63
31.82
37.10
37.42
32.43
22.51
8.83
-6.61
-21.04
-31.48
-35.59
-32.51
-23.30
-10.55
2.74
14.34
23.42
30.43
36.23
41.22
45.05
47.02
46.78
44.67
41.55
38.21
34.74
30.58
24.99
17.80
9.72
2.17
-3.39
-6.20
-6.61
-6.03
-6.42
-9.52
-16.20
-26.12
-37.68
-48.32
-55.13
-55.67
-48.82
-35.40
-18.39
-2.27
8.24
9.80
1.89
-13.01
-30.23
-44.67
-52.60
-52.76
-46.26
-35.81
-24.47
-14.62
-7.54
-3.40
-1.45
-0.58
0.40
2.33
5.51
9.79
14.66
19.47
23.61
26.59
28.01
27.73
25.87
22.81
18.95
14.55
9.60
4.06
-1.74
-6.92
-10.18
-10.38
-6.97
-0.26
8.72
18.64
28.15
35.98
40.69
40.67
34.63
22.39
5.57
-12.46
-27.50
-36.10
-36.89
-30.94
-21.02
-10.09
0.09
9.28
18.02
26.27
32.67
34.97
31.54
22.99
12.54
4.72
3.13
8.49
18.29
28.13
34.01
34.09
29.27
22.21
16.07
13.47
16.07
24.46
37.92
54.01
68.51
76.26
72.72
55.72
26.60
-9.94
-47.21
-78.42
-98.50
-105.17
-99.23
-84.08
-64.76
-46.56
-33.47
-26.91
-25.42
-25.68
-24.43
-20.27
-14.43
-9.82
-9.14
-13.03
-19.51
-24.99
-26.34
-22.53
-15.09
-7.07
-1.31
0.77
-0.60
-4.34
-9.51
-15.74
-22.81
-29.89
-35.05
-35.68
-29.50
-15.89
3.37
24.31
41.99
52.07
52.21
42.79
26.77
8.74
-6.43
-15.09
-15.82
-9.68
0.40
10.88
19.01
23.70
25.63
26.45
27.78
30.39
33.98
37.62
40.30
41.38
40.70
38.42
34.81
30.26
25.30
20.64
16.99
14.74
13.52
12.27
9.54
4.11
-4.36
-14.97
-25.68
-33.88
-37.18
-34.33
-25.83
-14.16
-3.33
2.25
-0.72
-12.95
-31.84
-52.03
-67.25
-72.76
-67.24
-53.37
-36.51
-22.41
-14.84
-14.23
-17.96
-21.96
-22.71
-18.81
-11.24
-2.57
4.47
8.26
8.82
7.41
5.63
4.52
4.18
3.88
2.73
-0.03
-4.92
-12.62
-23.94
-39.27
-57.48
-75.20
-87.31
-88.84
-77.59
-55.79
-29.58
-6.40
8.40
13.78
12.71
9.75
8.11
8.07
7.66
4.88
-0.27
-5.50
-7.68
-4.89
2.21
10.95
18.37
23.09
25.95
29.15
34.48
42.12
50.54
57.60
62.02
64.18
65.73
68.40
72.88
78.39
83.21
85.50
84.01
78.21
68.28
54.98
39.79
24.95
12.81
4.86
0.60
-2.52
-8.03
-18.36
-33.11
-48.78
-60.29
-63.62
-57.78
-45.26
-30.50
-17.58
-8.51
-2.83
1.20
5.19
9.51
13.41
15.87
16.50
15.93
15.40
15.94
17.71
19.86
20.98
19.88
16.21
10.71
4.86
0.16
-2.54
-3.48
-3.80
-4.87
-7.57
-11.85
-16.82
-21.40
-24.98
-27.72
-30.30
-33.10
-35.46
-35.66
-31.57
-22.02
-7.82
8.09
21.64
29.35
29.77
23.95
14.68
5.17
-2.28
-6.72
-8.33
-7.72
-5.40
-1.68
3.08
8.31
13.20
17.00
19.18
19.62
18.53
16.31
13.42
10.31
7.30
4.49
1.72
-1.28
-4.54
-7.62
-9.56
-9.32
-6.53
-2.03
2.26
4.15
2.36
-2.50
-7.96
-10.65
-7.81
1.29
14.91
29.39
40.46
44.66
40.38
28.31
11.24
-6.68
-21.11
-28.82
-28.71
-22.12
-12.11
-2.19
5.10
8.83
9.39
7.73
4.49
-0.22
-6.45
-13.69
-20.74
-26.03
-28.39
-27.69
-24.85
-21.27
-18.10
-15.75
-13.97
-12.37
-10.87
-9.91
-10.09
-11.55
-13.52
-14.45
-12.65
-7.25
1.21
10.87
19.35
24.93
27.19
27.03
25.90
24.93
24.42
24.03
23.40
22.63
22.32
23.07
24.92
27.20
28.99
29.56
28.76
26.88
24.14
20.33
14.85
7.17
-2.69
-13.88
-24.98
-34.46
-41.22
-44.67
-44.80
-41.96
-36.84
-30.46
-23.95
-18.25
-13.72
-10.03
-6.33
-1.74
4.11
10.83
17.38
22.43
24.74
23.47
18.31
9.55
-1.90
-14.51
-26.16
-34.64
-38.22
-36.34
-29.88
-20.93
-12.10
-5.58
-2.44
-2.37
-4.06
-5.88
-6.62
-5.87
-4.08
-2.14
-0.99
-1.28
-3.16
-6.33
-10.20
-14.00
-16.92
-18.37
-18.01
-15.94
-12.60
-8.71
-5.05
-2.30
-0.82
-0.56
-0.99
-1.29
-0.59
1.66
5.46
10.22
15.05
19.16
22.22
24.40
26.21
28.04
29.86
31.21
31.39
29.82
26.33
21.26
15.49
10.27
6.95
6.63
9.73
15.74
23.21
30.16
34.79
36.22
34.72
31.47
27.87
24.89
22.61
20.49
17.85
14.35
10.17
5.83
1.73
-2.09
-5.87
-9.86
-14.09
-18.28
-22.12
-25.45
-28.36
-31.04
-33.46
-35.19
-35.52
-33.74
-29.56
-23.40
-16.27
-9.58
-4.60
-2.13
-2.36
-4.82
-8.60
-12.68
-16.19
-18.74
-20.38
-21.41
-21.97
-21.58
-18.97
-12.45
-0.83
15.59
34.34
51.17
61.35
61.36
50.40
30.72
6.86
-15.92
-33.22
-42.46
-43.19
-36.69
-25.36
-12.06
0.47
10.04
15.43
16.54
14.17
9.69
4.51
-0.34
-4.34
-7.46
-10.04
-12.38
-14.62
-16.60
-17.93
-18.24
-17.38
-15.56
-13.22
-10.81
-8.54
-6.23
-3.53
-0.16
3.82
7.84
10.93
12.05
10.48
6.17
-0.09
-6.80
-12.14
-14.50
-13.08
-8.06
-0.51
8.13
16.63
24.24
30.69
35.93
39.69
41.53
41.06
38.30
33.81
28.58
23.51
18.96
14.61
9.72
3.66
-3.63
-11.50
-18.88
-24.73
-28.44
-30.00
-29.97
-29.15
-28.26
-27.64
-27.12
-26.08
-23.72
-19.57
-13.81
-7.55
-2.59
-0.81
-3.33
-9.86
-18.67
-27.16
-32.98
-35.01
-33.71
-30.72
-27.85
-26.22
-25.85
-26.05
-25.86
-24.42
-20.72
-13.43
-1.28
15.93
36.35
55.97
69.95
74.84
70.28
59.17
46.01
34.37
25.35
17.64
9.24
-0.60
-10.52
-17.76
-19.86
-16.14
-8.03
1.68
10.04
15.00
15.74
12.62
6.91
0.29
-5.33
-8.10
-6.49
0.33
11.86
25.43
35.88
36.37
20.75
-13.20
-61.35
-113.03
-154.11
-172.26
-161.84
-126.12
-75.56
-23.15
20.71
51.16
68.81
77.12
79.35
77.01
70.05
58.48
43.74
28.99
17.99
13.47
15.89
23.14
31.68
38.17
40.82
39.93
37.38
35.41
35.30
36.72
37.87
36.51
31.04
21.44
9.30
-2.89
-12.95
-19.91
-24.44
-28.24
-32.98
-39.31
-46.42
-52.43
-55.51
-54.77
-50.65
-44.57
-38.13
-32.30
-27.25
-22.59
-17.94
-13.17
-8.41
-3.77
0.83
5.56
10.32
14.50
17.06
16.98
13.86
8.09
0.69
-7.14
-14.51
-20.82
-25.58
-27.94
-26.48
-19.61
-6.34
12.91
35.85
58.65
76.91
87.04
87.38
78.62
63.42
45.44
28.11
13.80
3.58
-2.58
-5.32
-5.43
-3.81
-1.44
0.61
1.29
-0.05
-3.41
-8.08
-12.95
-16.97
-19.64
-21.05
-21.72
-22.16
-22.71
-23.47
-24.52
-25.99
-27.91
-29.94
-31.22
-30.52
-26.88
-20.09
-10.99
-1.08
8.11
15.65
21.44
25.98
29.75
32.71
34.18
33.05
28.27
19.42
7.16
-6.76
-19.77
-29.08
-32.57
-29.46
-20.66
-8.40
4.51
15.66
23.59
27.86
28.64
26.30
21.17
13.81
5.23
-3.04
-9.24
-12.12
-11.42
-8.06
-3.68
0.07
2.23
2.76
2.28
1.56
1.07
0.85
0.58
-0.09
-1.38
-3.35
-5.99
-9.26
-13.08
-17.11
-20.72
-23.04
-23.29
-21.26
-17.51
-13.34
-10.27
-9.37
-10.72
-13.35
-15.79
-16.75
-15.83
-13.57
-11.09
-9.42
-8.90
-9.13
-9.35
-8.93
-7.86
-6.67
-6.06
-6.49
-7.84
-9.46
-10.51
-10.32
-8.60
-5.46
-1.29
3.34
7.80
11.54
14.22
15.80
16.57
17.03
17.59
18.39
19.25
19.82
19.85
19.38
18.73
18.30
18.31
18.62
18.83
18.50
17.39
15.65
13.74
12.20
11.40
11.30
11.47
11.25
10.15
8.02
5.16
2.09
-0.70
-2.96
-4.76
-6.29
-7.72
-9.11
-10.45
-11.75
-13.06
-14.41
-15.74
-16.84
-17.36
-17.06
-15.85
-13.89
-11.49
-8.96
-6.53
-4.34
-2.41
-0.74
0.66
1.81
2.77
3.60
4.36
5.02
5.48
5.65
5.45
4.90
4.13
3.33
2.65
2.18
1.94
1.87
1.88
1.90
1.85
1.69
1.38
0.89
0.22
-0.61
-1.53
-2.47
-3.36
-4.13
-4.70
-5.03
-5.18
-5.27
-5.48
-5.92
-6.51
-6.99
-6.99
-6.19
-4.49
-2.04
0.78
3.60
6.11
8.17
9.77
10.88
11.42
11.30
10.47
9.05
7.30
5.59
4.21
3.24
2.53
1.82
0.91
-0.21
-1.30
-2.04
-2.19
-1.74
-0.90
-0.04
0.51
0.56
0.12
-0.71
-1.76
-2.89
-4.04
-5.17
-6.31
-7.48
-8.72
-10.02
-11.28
-12.29
-12.77
-12.44
-11.10
-8.74
-5.51
-1.76
2.09
5.66
8.66
10.94
12.46
13.27
13.45
13.07
12.21
10.99
9.56
8.10
6.80
5.77
5.05
4.58
4.24
3.97
3.70
3.44
3.21
3.02
2.89
2.83
2.78
2.68
2.39
1.80
0.86
-0.39
-1.78
-3.11
-4.23
-5.11
-5.89
-6.76
-7.90
-9.39
-11.17
-13.03
-14.66
-15.77
-16.04
-15.31
-13.52
-10.78
-7.36
-3.62
0.06
3.34
6.02
8.02
9.36
10.08
10.24
9.91
9.17
8.18
7.11
6.18
5.52
5.19
5.18
5.36
5.65
5.95
6.22
6.47
6.68
6.84
6.90
6.80
6.50
6.00
5.34
4.64
3.99
3.47
3.06
2.63
2.02
1.08
-0.20
-1.73
-3.30
-4.69
-5.80
-6.64
-7.35
-8.14
-9.19
-10.59
-12.34
-14.30
-16.21
-17.72
-18.45
-18.16
-16.72
-14.26
-11.02
-7.31
-3.41
0.43
3.96
6.89
9.01
10.17
10.44
10.04
9.27
8.43
7.63
6.87
6.10
5.29
4.56
4.04
3.85
3.97
4.29
4.65
4.96
5.23
5.54
5.98
6.55
7.10
7.47
7.50
7.15
6.52
5.80
5.14
4.58
4.05
3.35
2.31
0.78
-1.21
-3.48
-5.75
-7.74
-9.25
-10.27
-10.95
-11.52
-12.22
-13.19
-14.43
-15.85
-17.28
-18.50
-19.26
-19.31
-18.44
-16.57
-13.83
-10.54
-7.11
-3.84
-0.92
1.63
3.88
5.86
7.52
8.79
9.59
9.92
9.88
9.56
9.03
8.36
7.64
7.01
6.64
6.66
7.08
7.77
8.49
9.01
9.20
9.03
8.55
7.78
6.74
5.37
3.62
1.50
-0.91
-3.42
-5.85
-7.97
-9.59
-10.55
-10.72
-10.03
-8.59
-6.64
-4.55
-2.72
-1.44
-0.78
-0.56
-0.44
-0.16
0.37
1.02
1.53
1.66
1.39
0.84
0.27
-0.02
0.24
1.34
3.46
6.65
10.63
14.83
18.48
20.91
21.78
21.31
20.14
18.98
18.36
18.25
18.23
17.70
16.26
13.96
11.30
8.97
7.46
6.91
6.96
6.98
6.37
4.77
2.11
-1.46
-5.73
-10.45
-15.31
-19.87
-23.52
-25.61
-25.76
-24.02
-20.90
-17.26
-14.01
-11.85
-11.07
-11.57
-12.96
-14.71
-16.25
-17.05
-16.72
-15.07
-12.16
-8.30
-4.02
0.12
3.64
6.26
7.95
8.81
9.03
8.78
8.20
7.38
6.44
5.55
4.86
4.48
4.39
4.46
4.48
4.30
3.84
3.17
2.41
1.67
0.99
0.40
-0.15
-0.67
-1.14
-1.55
-1.95
-2.47
-3.23
-4.31
-5.68
-7.16
-8.52
-9.51
-10.01
-10.05
-9.76
-9.41
-9.28
-9.61
-10.50
-11.88
-13.48
-14.89
-15.66
-15.43
-14.07
-11.65
-8.49
-4.98
-1.51
1.61
4.20
6.20
7.67
8.69
9.33
9.61
9.57
9.25
8.77
8.28
7.93
7.77
7.77
7.85
7.94
8.00
8.04
8.08
8.11
8.09
8.01
7.82
7.54
7.12
6.53
5.74
4.74
3.60
2.44
1.31
0.18
-1.04
-2.42
-3.90
-5.31
-6.44
-7.18
-7.59
-7.91
-8.42
-9.26
-10.44
-11.77
-12.97
-13.76
-13.89
-13.21
-11.69
-9.41
-6.63
-3.68
-0.90
1.49
3.43
4.96
6.12
6.91
7.25
7.07
6.43
5.50
4.59
3.93
3.64
3.65
3.76
3.82
3.85
4.04
4.67
5.95
7.81
9.93
11.82
13.02
13.28
12.62
11.28
9.53
7.64
5.72
3.80
1.91
0.07
-1.70
-3.34
-4.89
-6.38
-7.88
-9.41
-10.95
-12.39
-13.58
-14.30
-14.32
-13.45
-11.57
-8.72
-5.17
-1.35
2.21
5.01
6.70
7.24
6.87
6.02
5.16
4.57
4.29
4.15
3.90
3.39
2.65
1.86
1.24
0.88
0.75
0.71
0.64
0.53
0.45
0.43
0.44
0.32
-0.08
-0.82
-1.83
-2.91
-3.88
-4.64
-5.21
-5.67
-6.11
-6.55
-7.01
-7.55
-8.24
-9.17
-10.38
-11.78
-13.12
-14.10
-14.38
-13.73
-12.04
-9.38
-5.94
-2.00
2.11
6.05
9.50
12.21
14.00
14.86
14.91
14.40
13.61
12.73
11.81
10.77
9.57
8.26
7.04
6.18
5.89
6.13
6.63
6.96
6.61
5.26
2.77
-0.76
-4.95
-9.28
-13.11
-15.78
-16.80
-16.03
-13.78
-10.79
-7.99
-6.25
-6.09
-7.44
-9.77
-12.27
-14.17
-15.06
-14.94
-14.17
-13.16
-12.11
-10.93
-9.37
-7.19
-4.46
-1.57
0.95
2.69
3.58
3.95
4.35
5.27
6.91
9.12
11.47
13.42
14.41
14.04
12.20
9.16
5.66
2.71
1.24
1.63
3.46
5.61
6.69
5.77
2.82
-1.28
-5.10
-7.41
-7.68
-6.24
-4.04
-2.32
-2.33
-5.06
-10.83
-18.83
-26.87
-31.60
-29.51
-18.30
1.95
28.53
56.93
82.35
101.13
111.40
112.83
105.91
91.38
70.29
44.30
15.98
-11.40
-34.58
-51.14
-60.05
-61.70
-57.51
-49.42
-39.35
-28.97
-19.56
-12.02
-6.77
-3.78
-2.68
-2.92
-3.97
-5.37
-6.81
-8.03
-8.78
-8.85
-8.11
-6.63
-4.67
-2.64
-0.92
0.24
0.84
1.02
0.96
0.82
0.59
0.18
-0.50
-1.39
-2.30
-2.96
-3.20
-3.04
-2.76
-2.75
-3.34
-4.59
-6.28
-7.95
-9.16
-9.65
-9.38
-8.60
-7.66
-6.89
-6.45
-6.23
-5.88
-5.00
-3.27
-0.69
2.38
5.33
7.47
8.33
7.86
6.49
4.98
4.22
4.87
7.09
10.40
13.80
16.08
16.29
14.14
10.19
5.61
1.77
-0.31
-0.32
1.31
3.65
5.72
6.78
6.52
4.98
2.40
-0.86
-4.48
-8.07
-11.26
-13.79
-15.51
-16.47
-16.85
-16.86
-16.66
-16.28
-15.63
-14.59
-13.03
-10.93
-8.35
-5.47
-2.50
0.30
2.73
4.64
5.91
6.42
6.07
4.81
2.82
0.45
-1.71
-3.14
-3.59
-3.23
-2.60
-2.30
-2.70
-3.67
-4.66
-4.88
-3.68
-0.94
2.90
6.91
10.02
11.40
10.76
8.43
5.24
2.20
0.11
-0.73
-0.67
-0.52
-1.25
-3.59
-7.83
-13.65
-20.12
-25.80
-28.98
-28.15
-22.54
-12.64
-0.32
11.65
20.46
24.37
23.36
18.99
13.65
9.41
7.15
6.42
6.03
4.95
2.99
0.87
-0.32
0.08
1.84
3.80
4.47
2.75
-1.59
-7.85
-14.50
-19.58
-21.19
-17.74
-8.73
4.97
21.02
36.07
46.79
51.08
49.11
43.28
37.31
34.56
36.74
43.44
52.58
61.60
68.33
71.38
69.81
62.71
49.14
28.59
1.92
-28.01
-56.56
-78.38
-89.28
-87.76
-75.57
-57.16
-38.14
-23.52
-16.56
-17.86
-25.61
-36.14
-45.02
-48.23
-43.37
-30.45
-12.01
7.47
23.01
30.43
27.76
15.84
-1.85
-20.18
-33.91
-39.38
-35.84
-25.78
-13.92
-5.18
-2.46
-5.40
-10.91
-15.02
-14.99
-10.69
-4.33
1.06
3.29
2.04
-0.99
-2.84
-0.46
7.95
21.67
36.86
46.73
43.44
21.32
-19.97
-73.78
-127.77
-167.96
-184.01
-173.10
-140.55
-96.80
-52.65
-15.20
13.53
35.07
51.48
63.21
68.91
67.13
58.35
45.97
35.02
29.83
31.90
39.37
48.06
53.69
53.78
48.45
39.92
31.27
25.20
23.04
24.39
27.44
29.65
28.88
24.27
16.73
8.44
1.88
-1.41
-1.51
0.16
1.71
1.85
0.53
-1.27
-2.22
-1.48
0.81
3.65
5.80
6.44
5.57
3.93
2.57
2.29
3.34
5.36
7.70
9.74
11.11
11.75
11.78
11.39
10.74
9.94
9.10
8.29
7.52
6.72
5.80
4.66
3.29
1.75
0.13
-1.54
-3.29
-5.19
-7.22
-9.27
-11.09
-12.37
-12.91
-12.64
-11.69
-10.27
-8.61
-6.80
-4.80
-2.51
0.05
2.70
5.04
6.60
7.03
6.23
4.44
2.13
-0.19
-2.10
-3.37
-3.89
-3.70
-2.85
-1.48
0.16
1.75
2.92
3.44
3.26
2.57
1.65
0.74
-0.03
-0.65
-1.20
-1.76
-2.39
-3.18
-4.21
-5.56
-7.16
-8.85
-10.30
-11.21
-11.39
-10.78
-9.53
-7.82
-5.79
-3.52
-1.00
1.74
4.57
7.20
9.24
10.36
10.40
9.51
8.06
6.52
5.23
4.29
3.62
3.03
2.43
1.90
1.63
1.79
2.41
3.25
3.98
4.27
3.94
3.05
1.81
0.56
-0.45
-1.13
-1.57
-1.96
-2.55
-3.47
-4.66
-5.91
-6.86
-7.20
-6.77
-5.58
-3.83
-1.77
0.39
2.50
4.47
6.24
7.73
8.81
9.37
9.38
8.93
8.24
7.56
7.08
6.77
6.44
5.81
4.71
3.12
1.23
-0.63
-2.16
-3.16
-3.64
-3.76
-3.73
-3.75
-3.96
-4.41
-5.06
-5.85
-6.68
-7.48
-8.23
-8.94
-9.63
-10.32
-10.96
-11.48
-11.76
-11.69
-11.18
-10.18
-8.68
-6.70
-4.32
-1.66
1.08
3.67
5.84
7.39
8.22
8.39
8.09
7.58
7.07
6.64
6.27
5.88
5.38
4.80
4.20
3.71
3.37
3.16
2.97
2.71
2.40
2.09
1.91
1.88
1.92
1.85
1.51
0.88
0.10
-0.61
-1.12
-1.45
-1.80
-2.40
-3.40
-4.77
-6.35
-7.94
-9.38
-10.65
-11.70
-12.46
-12.77
-12.42
-11.32
-9.55
-7.37
-5.11
-3.04
-1.28
0.14
1.26
2.09
2.57
2.65
2.30
1.64
0.78
-0.07
-0.74
-1.11
-1.07
-0.61
0.19
1.16
2.07
2.70
2.99
3.08
3.19
3.49
3.98
4.44
4.52
3.97
2.77
1.17
-0.40
-1.51
-1.93
-1.76
-1.33
-1.14
-1.63
-2.95
-4.88
-6.88
-8.30
-8.49
-7.11
-4.15
0.04
4.72
8.89
11.39
11.24
8.02
2.29
-4.39
-9.91
-12.39
-10.98
-6.28
-0.01
5.70
9.29
10.24
9.04
6.71
4.16
1.87
-0.05
-1.61
-2.65
-2.85
-1.94
-0.04
2.31
4.16
4.53
2.78
-1.10
-6.42
-11.95
-16.33
-18.54
-18.29
-16.17
-13.52
-11.95
-12.74
-16.29
-21.80
-27.55
-31.40
-31.58
-27.46
-19.76
-10.32
-1.29
5.69
10.13
12.63
14.45
16.66
19.64
22.89
25.47
26.51
25.72
23.46
20.59
18.04
16.48
16.12
16.78
18.05
19.40
20.44
21.02
21.24
21.33
21.52
21.82
22.11
22.21
21.98
21.42
20.54
19.16
16.85
13.05
7.41
0.15
-7.89
-15.47
-21.37
-24.88
-26.01
-25.42
-24.03
-22.74
-22.21
-22.89
-24.91
-28.00
-31.38
-33.82
-34.11
-31.56
-26.39
-19.76
-13.11
-7.53
-3.26
0.18
3.35
6.24
8.04
7.54
4.12
-1.52
-7.25
-10.34
-8.69
-2.01
8.08
18.73
27.28
32.39
34.45
34.89
35.08
35.44
35.23
33.27
28.94
22.77
16.23
10.92
7.61
5.80
4.22
1.73
-1.82
-5.36
-7.13
-5.81
-1.28
5.15
11.26
14.91
14.94
11.67
6.66
1.98
-0.75
-1.10
-0.06
0.36
-1.94
-8.15
-17.83
-28.96
-38.64
-44.29
-44.72
-40.49
-33.52
-26.11
-19.98
-15.74
-12.95
-10.59
-7.80
-4.17
0.09
4.42
8.18
10.93
12.49
12.88
12.20
10.47
7.61
3.50
-1.76
-7.71
-13.38
-17.49
-18.86
-17.05
-12.74
-7.67
-4.10
-3.86
-7.48
-13.87
-20.68
-25.16
-25.25
-20.33
-11.47
-0.84
9.04
16.10
19.09
17.66
12.31
4.41
-3.82
-9.62
-10.52
-5.40
4.81
17.27
28.44
35.62
38.12
37.25
35.33
34.12
34.00
33.90
32.24
28.02
21.30
13.02
4.41
-3.64
-10.77
-16.99
-22.40
-27.08
-31.03
-34.23
-36.54
-37.70
-37.47
-35.72
-32.62
-28.56
-23.99
-19.18
-14.24
-9.32
-4.86
-1.65
-0.46
-1.51
-4.08
-6.58
-7.28
-5.19
-0.66
4.82
9.50
12.26
13.27
13.63
14.57
16.57
18.91
20.02
18.36
13.22
5.26
-3.74
-11.59
-16.60
-18.20
-17.06
-14.64
-12.58
-12.03
-13.35
-16.19
-19.82
-23.63
-27.37
-31.31
-35.89
-41.30
-47.23
-52.69
-56.51
-57.84
-56.74
-54.16
-51.42
-49.29
-47.53
-45.23
-41.72
-37.53
-34.26
-33.23
-33.82
-32.74
-25.18
-7.33
21.36
57.64
96.12
132.08
163.36
190.47
214.79
236.45
253.52
262.86
262.19
251.70
234.15
213.64
193.90
177.05
163.45
152.29
142.28
132.17
120.91
107.78
92.46
75.13
56.53
37.93
21.03
7.67
-0.66
-3.40
-1.37
3.23
7.58
9.27
7.32
2.48
-3.40
-8.58
-12.48
-15.91
-20.47
-27.42
-36.91
-47.86
-58.66
-68.01
-75.60
-82.08
-88.71
-96.88
-107.56
-121.05
-136.68
-152.66
-166.11
-173.63
-172.20
-160.42
-139.35
-112.39
-84.22
-59.02
-39.01
-23.79
-11.06
2.08
17.72
36.50
57.76
79.98
101.28
119.38
131.66
135.56
129.50
113.68
90.53
63.95
37.88
14.79
-5.09
-23.33
-42.26
-63.85
-89.27
-118.90
-152.32
-187.81
-221.46
-246.95
-256.77
-244.58
-207.92
-149.59
-76.88
1.02
76.08
143.47
201.85
252.10
295.64
333.04
363.65
385.88
397.86
398.15
386.30
363.27
331.22
292.93
251.50
209.94
171.14
137.76
111.61
92.61
78.43
65.43
50.85
35.04
22.04
17.61
25.80
46.12
73.27
99.67
119.19
129.83
133.71
134.69
135.43
135.78
133.49
126.09
112.70
94.73
74.78
55.10
36.38
17.72
-2.59
-26.17
-53.36
-83.14
-113.54
-142.35
-167.98
-189.92
-208.84
-226.49
-245.33
-268.00
-296.46
-330.96
-369.24
-406.52
-436.41
-452.67
-451.36
-432.28
-399.31
-359.46
-320.82
-290.38
-272.26
-267.06
-272.17
-282.77
-293.29
-298.58
-295.05
-281.15
-257.55
-226.69
-191.89
-156.34
-122.50
-91.70
-64.64
-42.13
-25.39
-15.79
-13.69
-17.54
-23.44
-26.34
-22.05
-9.22
9.67
28.87
41.11
40.25
23.74
-5.71
-40.03
-67.82
-78.17
-65.20
-31.23
13.03
51.82
70.32
60.45
24.17
-27.43
-78.55
-114.55
-126.66
-113.95
-82.08
-40.34
1.83
37.38
62.46
75.95
78.18
70.09
53.06
29.39
2.86
-21.64
-39.28
-47.18
-45.60
-38.09
-30.03
-26.44
-29.93
-40.00
-53.50
-65.81
-72.38
-70.13
-58.34
-38.98
-15.83
7.23
28.35
48.78
72.10
101.38
136.35
172.30
202.00
219.62
224.05
219.34
211.60
204.36
195.47
178.04
145.07
94.85
33.52
-26.89
-73.79
-99.59
-104.14
-93.41
-75.56
-57.62
-44.16
-37.95
-41.10
-55.16
-79.79
-111.26
-142.62
-165.63
-174.32
-167.59
-149.01
-124.15
-97.17
-69.03
-38.30
-3.57
34.02
69.80
96.63
107.57
98.48
69.77
26.74
-21.71
-65.57
-96.54
-110.47
-108.28
-95.26
-78.68
-64.70
-56.04
-51.30
-46.17
-35.47
-15.31
15.72
56.03
101.15
144.58
179.35
199.75
203.06
190.44
166.70
138.72
113.17
94.39
83.38
78.07
74.72
69.82
61.59
50.54
39.11
30.74
28.89
36.06
53.08
78.65
109.40
140.27
165.54
180.14
180.90
167.26
141.20
106.63
68.46
31.58
0.09
-23.43
-38.44
-46.41
-50.30
-53.35
-57.70
-63.64
-69.69
-73.53
-73.59
-70.48
-67.64
-70.60
-84.62
-111.76
-148.56
-185.94
-211.68
-215.14
-191.75
-145.52
-87.76
-32.63
8.37
30.45
36.11
32.65
27.99
27.26
31.68
39.57
48.55
57.34
66.27
76.51
88.65
101.62
112.88
119.50
119.52
112.78
100.95
86.68
72.47
59.85
49.22
40.10
31.84
24.14
17.07
10.77
4.84
-1.90
-11.18
-24.48
-42.14
-62.69
-83.00
-99.10
-107.41
-105.93
-94.83
-76.43
-54.52
-33.52
-17.45
-8.98
-8.66
-14.70
-23.42
-30.36
-31.85
-26.31
-14.62
0.36
15.06
26.57
33.45
35.75
34.47
30.86
26.05
20.97
16.48
13.39
12.29
13.24
15.54
17.69
17.84
14.34
6.44
-5.26
-18.57
-30.05
-35.74
-32.45
-19.16
1.95
25.59
44.70
52.86
46.65
27.13
-0.43
-28.30
-48.91
-57.26
-52.09
-35.66
-12.40
12.86
36.32
55.76
70.29
79.67
83.75
82.38
75.81
65.26
53.03
42.00
34.50
31.24
30.95
31.12
29.19
23.71
14.73
3.28
-9.54
-23.01
-36.65
-49.34
-58.70
-61.40
-54.66
-38.07
-14.79
8.87
25.61
30.05
20.77
0.51
-25.34
-51.06
-72.39
-87.12
-94.52
-94.64
-88.09
-76.27
-61.61
-46.90
-34.16
-23.44
-12.88
-0.19
15.27
31.28
43.46
47.65
42.48
30.49
16.93
7.15
4.11
7.37
13.92
20.10
23.28
22.50
18.19
11.66
4.82
0.21
0.71
8.54
23.95
44.10
63.33
74.91
73.72
58.70
33.60
5.70
-17.07
-29.35
-30.19
-22.82
-12.49
-3.59
2.34
6.74
12.44
21.37
33.07
44.81
53.15
56.00
53.70
48.64
43.62
40.16
37.82
34.93
30.00
22.96
15.12
8.08
2.48
-2.40
-7.76
-13.88
-19.20
-20.81
-16.20
-5.12
9.85
24.32
34.01
36.44
31.37
20.21
5.10
-11.60
-27.21
-38.72
-43.34
-39.64
-28.59
-13.72
0.20
9.05
10.85
6.22
-2.43
-12.04
-19.90
-23.84
-22.31
-14.63
-1.36
15.15
31.14
42.22
44.87
37.76
22.55
3.69
-12.81
-21.23
-18.05
-3.25
19.59
44.30
64.11
73.80
71.27
58.08
38.72
19.11
4.73
-0.96
2.61
13.22
26.93
39.60
48.50
53.01
54.35
54.37
54.33
54.17
52.63
48.21
40.17
29.02
16.49
4.74
-4.58
-11.03
-15.43
-19.39
-24.46
-31.16
-38.53
-44.30
-45.87
-41.56
-31.51
-17.83
-3.95
6.77
12.24
12.41
9.03
4.81
2.24
2.75
6.46
12.51
19.82
27.49
35.06
42.20
48.40
52.91
54.98
54.30
51.34
47.37
43.75
41.23
39.44
36.90
31.69
22.41
8.87
-7.65
-24.75
-39.79
-50.84
-57.17
-59.47
-59.20
-57.75
-55.60
-52.16
-46.10
-36.20
-22.25
-5.49
11.45
25.25
33.00
33.21
26.50
15.45
3.81
-4.74
-7.89
-5.30
1.44
9.71
16.94
21.58
23.41
23.22
22.16
21.09
20.31
19.61
18.60
16.94
14.63
11.90
9.00
5.92
2.18
-2.98
-10.22
-19.61
-30.32
-40.80
-49.26
-54.36
-55.63
-53.56
-49.09
-43.10
-36.04
-27.99
-18.96
-9.33
0.15
8.63
15.42
20.15
22.61
22.58
19.89
14.82
8.39
2.26
-1.82
-2.86
-1.12
2.06
5.03
6.75
7.09
6.51
5.29
3.11
-0.69
-6.41
-13.41
-20.03
-24.45
-25.72
-24.44
-22.65
-23.06
-27.71
-36.80
-48.32
-58.46
-62.86
-58.33
-44.24
-23.14
-0.25
18.10
26.66
23.07
8.80
-11.30
-30.58
-42.77
-43.97
-33.73
-14.90
7.64
28.79
44.91
54.69
58.87
59.20
57.35
54.33
50.65
46.73
43.31
41.21
40.78
41.33
41.11
38.00
30.63
19.19
5.56
-7.29
-16.53
-20.56
-19.74
-16.17
-12.73
-11.89
-14.61
-20.05
-26.00
-29.89
-29.96
-25.85
-18.74
-10.90
-5.06
-3.59
-7.88
-17.68
-30.95
-44.23
-53.64
-56.36
-51.94
-42.51
-31.80
-23.21
-18.20
-15.73
-13.20
-8.18
-0.09
9.41
17.40
21.31
20.20
15.06
8.12
1.57
-3.40
-6.72
-9.12
-11.30
-13.19
-13.55
-10.26
-1.13
14.77
35.97
58.27
75.79
82.98
77.11
59.87
37.35
18.02
9.54
15.86
35.64
62.83
88.93
106.07
109.56
99.05
77.99
51.82
25.87
3.77
-12.93
-24.20
-30.64
-32.90
-31.77
-28.61
-25.60
-25.28
-29.54
-38.44
-49.77
-59.55
-63.60
-59.30
-46.91
-29.63
-12.30
0.58
6.68
6.53
2.91
-0.67
-1.69
0.37
4.21
7.76
9.55
9.57
9.24
10.40
14.06
19.57
24.76
26.99
24.51
17.43
7.63
-2.24
-10.19
-15.77
-20.08
-24.68
-30.43
-36.76
-41.96
-44.14
-42.36
-37.15
-30.27
-23.85
-19.55
-17.91
-18.29
-19.07
-18.29
-14.18
-5.78
6.69
21.67
36.56
48.25
53.95
51.96
42.28
26.85
9.35
-5.73
-14.35
-14.31
-6.08
7.34
21.59
32.66
38.43
39.04
36.40
32.80
29.74
27.36
24.77
21.03
15.92
10.11
4.71
0.56
-2.31
-4.68
-7.66
-11.99
-17.61
-23.74
-29.26
-33.34
-35.71
-36.68
-36.72
-35.98
-34.12
-30.49
-24.68
-16.96
-8.43
-0.72
4.65
6.87
6.21
3.89
1.76
1.57
4.43
10.36
18.23
26.14
32.03
34.47
33.17
29.08
23.87
19.06
15.25
11.94
7.94
2.33
-4.76
-12.13
-18.02
-21.11
-21.30
-19.75
-18.35
-18.80
-21.79
-26.82
-32.55
-37.45
-40.30
-40.42
-37.58
-31.98
-24.21
-15.48
-7.56
-2.39
-1.28
-4.05
-8.68
-11.91
-10.59
-3.19
9.36
24.00
36.85
45.03
47.65
45.97
42.41
39.18
37.35
36.58
35.73
33.71
30.14
25.25
19.46
12.74
4.52
-5.96
-18.98
-33.63
-47.76
-58.52
-63.45
-61.37
-52.99
-40.70
-27.83
-17.55
-11.81
-10.73
-12.86
-15.94
-18.00
-18.21
-17.02
-15.54
-14.48
-13.42
-10.92
-5.50
3.12
13.43
22.49
27.33
26.37
20.28
11.58
3.42
-1.84
-3.57
-2.78
-1.44
-1.43
-3.83
-8.84
-15.89
-23.71
-30.36
-33.39
-30.45
-20.28
-3.76
15.66
32.66
41.89
40.02
27.27
7.57
-12.86
-27.71
-32.79
-27.24
-13.39
4.41
21.58
34.79
42.62
45.44
44.49
40.95
35.49
28.38
20.12
11.87
5.35
2.21
3.13
6.99
11.11
12.28
8.22
-1.18
-13.76
-25.84
-33.83
-35.60
-31.17
-22.56
-12.94
-5.66
-3.31
-7.02
-16.16
-28.17
-39.14
-44.80
-42.05
-30.25
-11.62
9.41
27.86
39.85
43.82
40.54
32.19
21.25
9.51
-2.21
-13.55
-24.08
-32.77
-38.11
-38.73
-34.16
-25.31
-14.59
-5.62
-2.38
-7.95
-22.97
-44.37
-65.26
-76.56
-70.39
-44.07
-2.43
42.99
78.32
93.30
85.82
62.45
34.87
14.05
5.57
8.48
17.52
26.99
33.68
37.24
38.88
39.43
38.64
35.75
30.76
24.92
20.14
17.76
17.68
18.28
17.13
11.88
1.06
-15.30
-35.10
-54.10
-66.75
-68.42
-58.05
-39.82
-22.17
-13.80
-18.90
-34.10
-49.56
-53.92
-40.50
-11.14
24.50
53.74
67.02
62.03
43.86
21.72
4.29
-3.72
-2.56
4.14
11.89
17.68
21.01
23.48
27.40
34.33
44.40
56.17
67.38
75.39
77.61
71.74
56.44
32.50
3.76
-23.26
-41.38
-45.94
-37.59
-22.82
-11.54
-12.61
-29.53
-58.48
-89.97
-112.91
-119.17
-106.49
-78.58
-43.07
-8.26
19.41
36.68
43.31
41.00
32.22
19.37
4.57
-9.98
-21.87
-28.76
-29.20
-23.47
-13.92
-4.40
1.17
0.40
-6.42
-16.35
-24.57
-26.03
-17.15
2.58
30.01
58.62
80.47
88.68
79.99
56.01
22.59
-12.40
-41.83
-61.29
-69.63
-68.24
-59.79
-47.16
-32.99
-19.47
-8.28
-0.56
3.27
3.25
-0.28
-6.81
-15.61
-25.71
-35.76
-44.23
-49.80
-51.72
-50.06
-45.59
-39.47
-32.82
-26.48
-21.08
-17.21
-15.47
-16.05
-18.06
-19.07
-15.54
-4.33
15.16
39.47
61.43
72.71
67.72
46.71
16.39
-12.63
-30.36
-31.64
-17.89
4.14
25.92
40.89
46.64
44.88
39.40
33.71
29.38
26.09
22.77
19.08
16.04
15.55
19.01
25.93
33.59
37.78
34.73
23.04
4.66
-15.39
-30.88
-36.80
-31.37
-16.72
1.94
18.47
28.01
28.68
21.69
10.29
-1.94
-12.46
-20.22
-25.16
-27.36
-26.51
-22.29
-15.12
-6.88
-0.68
0.42
-4.97
-15.47
-27.28
-35.91
-38.52
-35.31
-29.34
-24.68
-24.14
-28.02
-34.27
-39.93
-42.71
-41.70
-37.14
-29.63
-19.80
-8.43
3.10
12.82
18.88
20.76
19.87
19.18
21.61
28.24
37.30
44.65
45.75
37.97
22.21
2.89
-13.75
-22.16
-19.72
-7.53
10.30
28.54
42.78
50.70
52.34
49.43
44.24
38.57
33.27
28.30
23.33
18.32
13.76
10.34
8.40
7.45
6.22
3.40
-1.35
-6.86
-10.86
-11.11
-6.72
1.36
10.76
19.00
24.49
26.89
26.39
22.85
15.44
3.31
-13.07
-30.88
-45.12
-50.45
-43.63
-25.52
-1.28
21.46
35.69
37.83
28.87
13.46
-2.49
-14.51
-20.98
-23.18
-23.77
-25.08
-27.92
-31.39
-33.73
-33.41
-29.95
-24.06
-17.07
-10.25
-4.42
0.14
3.25
4.61
3.80
0.71
-4.12
-9.36
-13.29
-14.53
-12.67
-8.39
-3.12
1.65
5.01
6.76
7.24
6.98
6.33
5.46
4.50
3.64
3.27
3.75
5.22
7.30
9.19
9.88
8.51
4.80
-0.65
-6.50
-10.93
-12.20
-9.22
-2.02
8.20
19.17
27.86
31.11
26.44
13.10
-6.95
-28.85
-45.92
-52.05
-44.43
-25.22
-1.01
19.83
30.83
30.08
20.59
8.32
-0.99
-4.32
-2.09
2.93
7.57
9.80
9.34
7.13
4.57
2.79
2.20
2.64
3.41
3.63
2.58
0.01
-3.69
-7.55
-10.38
-11.26
-9.87
-6.61
-2.48
1.10
2.61
0.75
-5.05
-14.06
-24.02
-31.54
-33.16
-27.04
-14.09
1.89
15.56
22.26
20.10
10.71
-1.54
-11.62
-15.94
-13.60
-6.25
3.14
11.74
17.89
21.31
22.62
22.51
21.29
18.77
14.70
9.21
3.17
-1.98
-4.82
-4.76
-2.58
-0.27
-0.19
-3.88
-11.24
-20.33
-28.24
-32.33
-31.31
-25.60
-16.92
-7.41
1.16
7.70
11.65
12.79
11.14
7.20
2.18
-2.20
-4.20
-2.89
1.45
7.43
13.31
17.84
20.71
22.26
22.69
21.53
17.69
10.27
-0.37
-12.04
-21.22
-24.50
-20.16
-9.26
4.54
16.19
20.86
15.54
0.12
-22.12
-44.86
-60.11
-60.69
-43.20
-10.14
29.82
64.33
81.84
76.21
49.50
11.31
-24.97
-47.47
-50.32
-35.30
-10.21
14.97
32.26
38.26
34.33
24.88
14.75
7.25
3.39
2.56
3.47
5.06
6.72
8.07
8.76
8.54
7.35
5.46
3.31
1.20
-0.98
-3.65
-7.34
-12.35
-18.52
-25.08
-30.68
-33.43
-31.30
-22.83
-8.24
9.69
25.71
33.82
30.02
14.82
-6.10
-23.92
-30.76
-23.49
-5.40
15.46
30.45
34.51
28.18
16.50
5.58
-0.85
-2.94
-3.70
-6.34
-11.82
-18.27
-22.28
-21.19
-15.03
-6.67
-0.25
1.18
-2.64
-9.04
-13.97
-14.26
-9.29
-1.31
5.76
8.24
4.27
-5.65
-19.08
-32.74
-43.63
-49.59
-49.41
-42.83
-30.36
-13.51
4.97
21.35
31.88
34.16
28.46
17.82
6.67
-1.42
-5.47
-7.21
-9.23
-12.55
-15.24
-13.28
-3.32
14.37
34.92
50.67
55.03
46.05
27.71
7.93
-5.36
-8.01
-1.16
10.00
19.33
22.80
20.03
13.62
7.19
3.35
2.60
3.71
5.00
5.41
4.88
3.99
3.39
3.42
4.18
5.82
8.40
11.43
13.74
13.59
9.27
-0.36
-15.58
-35.68
-58.80
-81.52
-98.72
-104.48
-94.20
-67.07
-27.70
14.70
49.51
68.88
70.66
58.58
39.59
20.20
3.91
-8.99
-19.64
-28.34
-33.55
-32.71
-23.90
-7.56
13.08
32.96
47.13
52.51
48.86
38.51
25.15
12.38
2.43
-4.01
-7.57
-9.32
-10.22
-10.90
-11.83
-13.59
-16.59
-20.60
-24.05
-24.08
-17.86
-4.79
11.70
24.55
26.05
12.51
-12.50
-38.50
-52.66
-46.39
-20.20
16.09
48.16
64.25
60.66
42.64
20.66
4.61
-0.75
3.16
10.92
16.83
17.73
13.87
7.71
2.07
-1.36
-2.48
-2.02
-0.71
1.25
4.01
7.32
10.11
10.68
7.42
-0.24
-11.43
-24.22
-36.43
-46.27
-52.35
-53.30
-47.54
-33.77
-12.23
14.24
40.14
58.78
64.86
56.68
37.16
12.74
-9.08
-22.42
-24.82
-17.63
-4.97
8.02
16.82
18.78
13.62
3.33
-8.62
-18.33
-22.63
-20.06
-11.44
0.26
10.84
16.25
14.04
4.39
-9.55
-22.48
-28.54
-23.56
-7.20
15.99
37.37
47.26
39.33
14.23
-19.36
-47.66
-57.69
-43.45
-9.22
32.05
64.56
76.87
66.78
41.52
13.49
-5.81
-10.68
-2.70
11.41
23.72
28.66
24.67
13.77
-0.17
-13.39
-23.20
-28.00
-26.83
-19.11
-5.15
12.69
29.33
37.65
31.04
6.88
-31.06
-72.75
-105.34
-118.21
-107.40
-77.03
-37.04
1.18
29.16
43.47
45.26
38.29
26.88
14.86
5.43
0.98
2.60
9.26
17.70
23.27
21.82
11.59
-5.73
-25.52
-41.92
-50.06
-47.72
-35.95
-18.42
-0.11
14.23
21.25
19.65
10.40
-3.45
-17.60
-27.67
-30.69
-26.14
-16.01
-3.92
6.63
13.65
17.14
18.56
19.49
20.67
21.72
21.91
21.07
20.11
20.53
23.28
27.84
32.05
32.97
28.39
18.22
4.89
-7.34
-14.07
-12.60
-3.17
10.99
24.72
32.48
30.09
15.96
-8.45
-38.87
-69.06
-92.13
-102.29
-96.41
-75.23
-43.42
-8.30
22.27
42.47
50.11
46.87
37.08
25.67
16.44
11.12
9.59
10.69
13.03
15.55
17.44
17.92
16.25
11.90
4.81
-4.18
-13.34
-20.24
-22.63
-19.50
-11.93
-3.03
3.11
3.48
-2.06
-10.48
-17.15
-18.47
-13.93
-6.13
1.23
5.83
8.15
10.74
15.89
23.49
30.82
34.18
31.48
23.90
15.21
9.52
8.64
10.90
12.17
8.38
-1.86
-16.05
-28.64
-33.45
-26.55
-8.40
15.78
37.58
48.32
42.29
19.06
-15.97
-53.29
-82.52
-96.08
-91.72
-72.76
-46.10
-19.09
3.24
19.06
28.89
33.79
34.08
29.49
20.32
8.57
-2.20
-8.27
-7.79
-1.90
5.65
10.24
8.65
0.55
-11.39
-22.58
-28.31
-25.48
-13.93
3.26
20.40
30.89
29.63
15.45
-7.64
-31.23
-45.71
-44.61
-28.07
-3.33
18.43
27.59
21.05
3.91
-13.30
-20.37
-12.95
5.20
24.56
35.37
33.02
20.44
6.11
-0.80
4.65
20.90
40.76
55.15
57.17
44.81
21.26
-6.62
-31.10
-45.93
-47.96
-37.53
-17.86
6.01
28.54
44.69
50.79
45.03
27.97
2.89
-24.32
-46.31
-56.54
-52.15
-35.85
-15.48
-0.75
1.56
-8.47
-23.83
-34.26
-32.32
-17.79
2.06
16.94
19.83
11.20
-1.51
-8.90
-5.54
6.60
19.54
24.53
17.69
2.54
-11.71
-14.93
-1.34
27.65
64.19
96.81
114.51
110.18
82.64
37.12
-15.46
-61.20
-87.05
-85.31
-57.10
-12.88
30.67
56.76
55.18
26.64
-17.51
-59.89
-84.31
-82.23
-55.55
-14.92
25.51
54.19
66.11
63.30
52.15
39.17
27.77
17.61
6.21
-8.23
-24.50
-38.57
-45.81
-44.02
-35.32
-25.30
-19.62
-20.32
-24.45
-26.20
-21.50
-11.86
-4.50
-8.06
-26.56
-55.33
-82.23
-93.67
-82.01
-49.93
-9.06
26.07
45.14
46.21
35.07
21.08
12.08
11.38
17.70
26.96
34.45
35.64
26.91
6.01
-26.73
-66.93
-105.82
-131.81
-134.31
-108.46
-58.52
2.12
55.04
83.92
81.36
52.22
11.51
-22.34
-35.62
-24.91
2.61
33.72
56.09
63.71
58.20
46.10
34.05
25.62
20.76
17.67
15.21
13.89
15.20
19.81
26.37
31.78
32.51
26.45
13.99
-2.06
-17.57
-28.56
-32.59
-29.38
-20.84
-10.16
-0.60
5.89
9.44
11.98
15.69
21.26
26.91
29.15
25.00
14.23
0.10
-12.29
-19.05
-19.89
-18.22
-18.51
-22.81
-28.68
-30.28
-21.91
-1.92
25.58
52.46
70.52
75.38
67.98
53.32
37.34
23.81
13.04
2.53
-10.70
-27.42
-45.17
-59.43
-66.34
-65.43
-60.26
-55.92
-55.00
-54.66
-47.26
-25.00
13.99
61.98
103.40
121.92
108.97
68.84
17.06
-27.01
-49.32
-46.92
-27.55
-4.09
12.53
18.14
15.75
12.04
12.78
19.32
28.38
34.21
31.74
19.20
-1.19
-24.39
-44.70
-57.76
-61.75
-57.11
-45.57
-29.54
-12.03
2.88
10.23
5.75
-11.62
-37.74
-63.66
-78.98
-76.67
-56.65
-25.83
5.63
29.48
42.93
48.50
50.73
52.25
52.05
46.89
34.65
16.96
-0.69
-11.58
-11.30
-0.15
16.99
33.03
41.94
40.98
31.00
14.90
-4.49
-25.62
-47.80
-69.52
-86.89
-93.88
-84.70
-57.41
-16.47
27.59
61.84
76.37
68.76
45.03
16.72
-4.45
-11.52
-4.45
11.13
27.45
38.26
40.98
36.61
28.18
18.87
10.92
5.40
2.72
3.10
6.49
11.88
16.78
17.28
9.51
-8.26
-33.70
-60.18
-78.76
-81.86
-66.95
-38.26
-5.45
20.39
31.41
26.30
10.46
-6.77
-16.46
-13.79
0.37
20.45
39.08
50.19
51.15
43.16
30.07
16.37
5.47
-1.24
-4.30
-5.19
-5.37
-5.82
-7.25
-10.50
-16.34
-24.70
-33.53
-38.58
-34.67
-18.49
8.69
40.11
65.56
75.83
67.05
42.74
12.09
-14.48
-29.90
-32.85
-26.86
-17.24
-7.97
-0.21
7.08
15.33
24.69
33.66
39.89
41.69
39.06
33.71
28.22
24.65
23.44
23.10
20.92
14.38
2.80
-11.86
-25.25
-32.15
-28.58
-13.70
9.38
33.95
51.33
53.37
35.16
-2.75
-53.59
-105.60
-145.38
-162.31
-152.26
-119.03
-72.57
-24.87
14.55
41.53
57.14
65.33
69.77
71.83
70.71
65.10
55.09
42.81
31.39
23.00
17.34
11.50
2.00
-12.72
-30.54
-46.17
-53.62
-49.51
-35.28
-16.54
-0.10
9.64
12.43
11.16
9.01
7.01
3.99
-1.41
-8.35
-13.27
-11.93
-2.73
11.37
23.93
28.76
23.96
13.40
4.71
4.65
14.94
30.96
44.16
46.64
35.06
12.33
-13.78
-34.08
-41.82
-35.42
-19.09
-1.32
8.32
2.81
-19.47
-53.63
-89.74
-116.17
-123.86
-109.56
-76.79
-34.29
7.26
38.78
55.02
55.30
42.82
23.28
3.19
-11.62
-17.50
-13.91
-3.47
9.10
18.81
22.46
19.64
12.42
4.14
-2.15
-4.74
-3.52
0.36
4.82
7.44
6.09
-0.26
-10.37
-20.44
-25.00
-19.09
-1.07
25.30
51.22
65.73
60.45
33.92
-6.75
-48.10
-75.73
-80.51
-62.43
-30.20
3.30
27.18
37.09
35.75
29.60
23.96
19.66
13.48
1.73
-15.52
-32.56
-40.14
-30.56
-2.69
35.86
70.70
86.44
73.28
31.36
-28.61
-89.07
-131.84
-144.64
-125.29
-82.03
-29.89
15.24
42.53
49.60
41.89
28.87
19.08
16.58
20.42
26.84
32.34
35.59
37.34
38.62
39.04
36.49
28.42
14.05
-4.31
-21.64
-32.40
-33.08
-24.14
-9.84
3.44
9.86
6.51
-5.51
-21.65
-35.81
-42.68
-39.67
-27.53
-9.63
9.59
26.21
37.68
42.84
41.44
33.93
21.52
6.75
-6.49
-13.60
-11.01
1.97
22.00
42.40
55.49
55.67
41.96
18.64
-6.34
-24.53
-30.37
-23.37
-8.38
6.32
12.04
3.00
-21.14
-54.63
-87.02
-106.50
-104.21
-77.91
-33.51
16.70
58.38
80.50
79.33
59.30
30.65
4.90
-9.58
-10.09
0.57
16.48
31.49
41.42
44.57
40.97
31.42
17.07
-0.09
-16.91
-29.42
-34.48
-31.66
-24.13
-17.27
-15.72
-20.45
-28.10
-32.89
-30.16
-19.02
-2.59
14.20
27.34
35.30
38.34
36.70
29.40
15.04
-6.12
-30.27
-50.27
-58.36
-49.86
-26.13
5.49
34.72
52.72
56.04
47.94
36.47
30.19
33.91
45.91
58.49
61.46
46.95
13.58
-32.12
-77.81
-110.21
-120.74
-109.06
-82.59
-52.26
-26.81
-8.79
5.23
20.59
39.15
56.43
63.21
51.10
18.58
-26.13
-67.34
-88.64
-80.56
-45.02
5.02
50.97
76.07
71.62
39.74
-7.76
-54.14
-83.82
-87.73
-65.95
-26.95
16.22
51.03
69.78
71.43
60.59
44.67
30.56
22.55
21.89
27.61
37.53
48.80
57.90
60.96
54.96
39.37
17.45
-4.08
-17.20
-16.07
0.11
25.75
50.11
60.78
48.27
9.99
-48.17
-113.14
-168.56
-199.78
-198.19
-163.47
-103.36
-31.08
38.28
91.65
120.81
123.93
105.36
73.92
40.04
12.65
-3.27
-7.58
-4.06
1.67
4.69
2.33
-5.14
-15.01
-23.27
-26.09
-21.33
-9.60
5.84
20.20
29.00
29.84
22.95
10.55
-4.43
-19.28
-31.70
-39.56
-40.99
-35.27
-23.85
-10.66
-0.75
2.24
-1.62
-8.07
-10.74
-4.63
10.97
31.95
51.47
63.20
64.08
55.13
40.43
25.21
14.12
10.11
13.99
24.18
36.72
45.58
43.72
25.17
-12.35
-65.64
-125.67
-179.58
-214.48
-221.66
-199.64
-154.51
-97.38
-40.18
8.28
44.24
68.25
82.70
89.51
89.23
81.89
68.55
52.16
36.83
25.95
20.65
19.55
20.10
20.79
22.49
28.17
41.04
62.22
89.59
118.07
141.45
154.47
154.45
141.74
119.48
92.64
66.95
47.54
37.56
37.24
43.84
52.81
59.71
62.14
60.48
57.30
55.54
56.57
59.30
60.76
57.63
47.85
31.25
9.23
-16.39
-44.23
-73.61
-104.08
-134.60
-163.03
-186.56
-202.87
-211.41
-213.86
-213.21
-212.00
-210.58
-206.69
-196.64
-177.40
-148.37
-111.65
-70.77
-28.70
13.39
55.99
99.87
144.62
188.09
227.03
258.42
280.52
293.08
296.88
292.83
281.82
264.62
242.16
215.71
186.48
154.94
120.28
80.76
34.92
-16.62
-69.87
-117.63
-151.36
-164.23
-154.13
-124.95
-85.67
-47.27
-19.29
-7.40
-12.84
-33.23
-63.92
-98.97
-131.79
-155.95
-166.46
-161.47
-143.05
-116.60
-88.57
-64.00
-44.70
-29.47
-15.95
-2.67
9.72
18.98
22.67
19.57
10.15
-3.84
-20.04
-36.00
-49.37
-58.24
-61.67
-60.29
-56.31
-52.78
-52.20
-55.39
-61.45
-68.62
-75.65
-82.57
-90.40
-99.93
-110.42
-119.34
-123.44
-120.63
-111.36
-98.45
-85.54
-75.24
-67.94
-62.18
-56.30
-50.11
-45.40
-44.81
-49.75
-58.73
-67.46
-70.62
-64.35
-47.96
-23.98
3.20
29.16
50.76
66.61
76.99
83.40
88.00
92.85
99.10
106.42
113.10
116.96
116.65
112.52
106.35
99.98
94.11
88.03
80.63
71.91
63.72
59.02
60.11
67.10
77.59
87.97
95.16
97.65
95.16
87.52
73.81
52.75
24.32
-8.57
-39.93
-62.47
-70.77
-64.06
-46.93
-27.61
-14.54
-13.04
-23.53
-41.97
-62.07
-77.95
-86.22
-86.64
-81.42
-73.80
-66.69
-61.97
-60.59
-62.85
-68.86
-78.36
-90.43
-103.08
-113.50
-118.94
-117.99
-111.32
-101.36
-90.97
-81.76
-73.23
-63.23
-49.46
-31.07
-9.41
12.50
31.40
45.23
53.82
58.63
61.73
64.83
68.71
73.21
77.67
81.28
83.39
83.69
82.31
79.73
76.75
74.20
72.65
72.27
72.63
72.90
72.16
69.83
66.07
61.79
58.44
57.31
58.88
62.45
66.40
68.95
69.06
67.09
64.79
64.50
68.06
75.83
86.19
95.88
100.88
97.66
83.93
59.29
25.61
-12.94
-49.96
-78.01
-90.92
-86.35
-67.45
-42.13
-20.14
-9.39
-13.20
-30.06
-55.44
-84.36
-113.31
-140.32
-163.98
-182.35
-193.15
-195.10
-189.16
-178.48
-166.95
-157.05
-148.55
-138.63
-123.27
-98.84
-63.25
-16.47
38.86
97.08
150.05
188.85
207.44
205.97
192.11
178.58
177.31
193.09
220.64
247.23
259.37
249.74
220.31
180.25
140.50
108.60
86.61
72.72
64.23
59.67
58.78
61.27
65.62
69.15
69.20
64.54
55.80
44.73
32.88
20.70
7.40
-8.27
-27.00
-48.38
-70.59
-91.05
-107.19
-117.21
-120.40
-117.17
-108.97
-97.95
-86.69
-77.73
-72.90
-72.80
-76.55
-82.10
-86.96
-89.02
-87.16
-81.31
-72.23
-61.23
-49.85
-39.61
-31.76
-26.95
-24.94
-24.78
-25.10
-24.79
-23.48
-21.69
-20.58
-21.44
-24.99
-31.03
-38.38
-45.30
-50.10
-51.78
-50.30
-46.54
-41.67
-36.65
-31.73
-26.62
-20.76
-14.03
-6.92
-0.46
4.23
6.53
6.52
4.96
2.91
1.21
0.26
-0.02
0.03
0.14
0.24
0.42
0.62
0.57
-0.18
-1.94
-4.56
-7.29
-8.93
-8.38
-5.11
0.51
7.26
13.51
17.78
19.21
17.76
14.16
9.70
5.97
4.54
6.55
12.30
21.09
31.26
40.76
47.74
51.07
50.49
46.47
39.96
32.14
24.33
17.73
13.21
10.87
9.99
9.11
6.73
1.93
-5.12
-13.23
-20.72
-26.04
-28.28
-27.25
-23.28
-16.99
-9.33
-1.71
3.86
5.09
0.15
-11.41
-28.08
-46.47
-62.33
-71.87
-73.14
-66.47
-54.11
-39.21
-24.64
-12.33
-3.18
2.59
5.00
4.14
0.17
-6.43
-14.72
-23.38
-30.98
-36.30
-38.78
-38.59
-36.50
-33.61
-30.97
-29.36
-29.16
-30.39
-32.85
-36.10
-39.50
-42.37
-44.27
-45.18
-45.62
-46.43
-48.50
-52.30
-57.76
-64.19
-70.42
-75.09
-77.04
-75.63
-71.00
-64.18
-56.79
-50.65
-47.03
-46.00
-46.23
-45.29
-40.55
-30.39
-15.08
3.03
20.28
33.10
39.48
39.78
36.45
32.77
31.31
33.02
37.20
42.48
47.95
53.77
60.90
69.94
80.13
88.99
92.97
88.96
75.81
55.45
32.77
14.36
6.45
12.53
31.65
58.36
84.32
101.48
105.21
96.05
79.28
62.61
53.17
55.21
69.05
91.20
115.25
133.34
138.15
125.58
97.16
60.80
28.78
13.14
20.67
49.83
91.53
133.24
164.06
178.18
175.34
159.02
133.81
103.84
72.38
42.55
17.89
2.54
0.30
13.20
40.21
76.59
114.66
145.87
163.51
164.70
151.11
127.61
99.80
71.73
44.88
18.76
-7.62
-34.23
-59.59
-81.24
-96.83
-105.18
-106.76
-103.58
-98.33
-93.44
-90.30
-89.03
-88.81
-88.60
-87.71
-86.04
-83.91
-81.65
-79.34
-76.83
-73.91
-70.64
-67.49
-65.34
-65.19
-67.82
-73.39
-81.22
-89.98
-98.28
-105.13
-110.35
-114.52
-118.61
-123.54
-129.89
-137.83
-147.25
-158.15
-170.95
-186.49
-205.65
-228.21
-251.78
-271.43
-280.91
-275.05
-252.33
-216.05
-173.11
-131.06
-95.03
-66.34
-43.36
-23.82
-6.63
7.97
19.90
31.08
45.92
69.87
106.61
155.91
213.04
270.12
318.52
351.07
363.34
353.83
323.82
277.07
219.46
158.28
101.12
54.14
20.49
-0.56
-13.16
-23.00
-34.72
-49.72
-65.60
-77.42
-80.15
-71.33
-52.35
-27.92
-3.97
14.81
26.53
32.13
34.08
34.56
34.28
32.57
28.26
20.69
10.44
-0.70
-10.13
-15.41
-15.12
-9.49
-0.63
8.24
13.98
15.09
12.46
9.08
8.46
12.56
20.54
28.95
33.37
30.62
20.35
4.95
-11.77
-26.35
-36.77
-42.37
-43.11
-38.97
-30.00
-17.05
-2.50
10.02
16.95
16.52
9.86
0.57
-6.91
-9.61
-7.28
-2.39
1.51
1.54
-3.26
-11.94
-22.58
-33.35
-43.00
-50.73
-55.82
-57.52
-55.50
-50.54
-44.81
-41.34
-42.68
-49.41
-59.38
-68.12
-70.59
-63.33
-46.21
-22.70
1.34
19.84
28.71
27.03
16.91
2.26
-12.81
-25.27
-33.44
-36.76
-35.10
-28.48
-17.27
-2.69
12.90
26.23
34.19
35.05
29.48
20.54
12.69
9.97
14.36
24.93
38.11
49.16
53.93
50.37
39.16
23.24
6.68
-6.58
-13.78
-13.81
-7.20
4.13
17.48
29.90
39.00
43.56
43.85
41.41
38.36
36.38
35.97
36.03
34.36
28.55
17.00
-0.26
-21.53
-44.07
-64.93
-81.80
-93.47
-99.71
-100.94
-97.86
-91.34
-82.53
-72.84
-63.76
-56.39
-50.92
-46.60
-42.10
-36.32
-29.16
-21.71
-15.87
-13.50
-15.65
-22.07
-31.40
-41.65
-50.70
-56.75
-58.48
-55.27
-47.24
-35.27
-20.89
-5.89
8.13
20.20
30.05
37.95
44.23
49.04
52.28
53.82
53.76
52.54
50.76
49.00
47.64
46.91
47.03
48.20
50.55
53.98
57.98
61.88
64.89
66.47
66.47
64.98
62.26
58.46
53.67
48.00
41.69
35.16
28.83
23.05
18.01
13.81
10.68
8.97
9.15
11.55
16.09
22.16
28.70
34.43
38.22
39.44
38.12
34.88
30.67
26.38
22.52
19.17
16.19
13.55
11.58
10.86
11.94
14.89
19.13
23.57
27.03
28.75
28.65
27.21
25.10
22.79
20.36
17.54
14.03
9.72
4.82
-0.25
-5.07
-9.37
-13.14
-16.48
-19.45
-22.01
-24.13
-25.95
-27.78
-30.04
-32.84
-35.76
-37.79
-37.62
-34.21
-27.25
-17.37
-5.95
5.33
15.02
22.23
26.72
28.76
28.89
27.72
25.75
23.35
20.79
18.28
15.99
14.05
12.58
11.59
11.07
11.05
11.65
13.04
15.31
18.38
21.78
24.85
26.85
27.25
25.91
23.06
19.13
14.55
9.52
4.08
-1.82
-8.08
-14.38
-20.16
-24.91
-28.34
-30.59
-32.13
-33.40
-34.59
-35.44
-35.37
-33.78
-30.48
-25.74
-20.18
-14.44
-8.95
-3.88
0.73
4.75
8.03
10.43
12.07
13.36
14.83
16.82
19.26
21.72
23.64
24.71
25.08
25.27
25.91
27.33
29.38
31.45
32.79
32.86
31.57
29.28
26.58
24.04
21.99
20.46
19.25
18.05
16.48
14.17
10.84
6.40
1.12
-4.37
-9.26
-12.86
-15.01
-16.16
-17.24
-19.25
-22.79
-27.75
-33.24
-37.90
-40.29
-39.44
-35.22
-28.45
-20.72
-13.95
-9.73
-8.84
-11.04
-15.19
-19.89
-24.00
-27.13
-29.54
-31.74
-33.93
-35.72
-36.24
-34.61
-30.51
-24.37
-17.21
-10.17
-4.06
0.85
4.68
7.78
10.53
13.27
16.28
19.84
24.10
29.08
34.77
41.22
48.55
56.74
65.32
73.15
78.73
80.91
79.43
75.17
69.79
64.95
61.78
60.58
60.94
61.86
61.63
57.94
48.40
31.88
9.79
-13.25
-30.64
-36.30
-27.53
-6.57
20.23
45.09
62.26
70.06
71.06
70.22
72.26
79.67
92.06
106.87
120.80
131.12
136.33
136.24
131.39
122.61
110.65
96.18
80.00
63.18
47.17
33.54
23.60
17.78
15.43
14.87
14.10
11.66
7.22
1.70
-3.47
-7.37
-10.48
-14.56
-21.61
-32.40
-45.55
-57.97
-66.54
-69.90
-69.38
-68.00
-68.27
-70.10
-70.55
-65.59
-52.95
-34.26
-14.90
-1.55
1.10
-7.55
-24.26
-43.97
-62.27
-76.58
-86.06
-90.62
-89.95
-83.39
-70.30
-50.58
-25.14
3.96
33.44
59.00
75.89
80.06
69.46
44.87
10.10
-28.54
-63.61
-88.09
-97.13
-89.45
-67.90
-38.76
-9.83
12.06
22.94
22.22
11.90
-4.49
-22.75
-38.18
-45.81
-41.22
-22.35
9.20
47.90
86.00
116.46
135.52
143.60
144.16
141.53
138.82
137.19
136.29
135.44
134.50
134.19
135.60
139.36
145.00
150.71
153.89
152.02
143.48
128.01
106.65
81.09
52.93
23.36
-6.97
-37.57
-67.86
-97.31
-125.87
-154.48
-184.86
-218.64
-255.89
-293.99
-327.77
-351.10
-359.31
-351.02
-328.53
-296.64
-260.61
-224.59
-191.19
-162.01
-138.44
-121.95
-113.49
-112.59
-116.80
-121.99
-123.50
-117.81
-103.92
-83.85
-62.18
-44.54
-35.49
-36.64
-46.22
-60.10
-73.56
-82.93
-86.24
-83.23
-75.06
-64.44
-55.62
-53.64
-62.24
-81.34
-105.68
-125.95
-132.58
-120.20
-90.37
-50.87
-12.06
17.77
35.25
42.02
42.35
40.27
38.14
36.56
35.60
35.91
38.87
45.73
56.32
68.61
79.04
83.81
80.36
68.59
51.01
31.73
14.97
3.71
-0.80
1.13
7.96
16.97
24.36
25.62
17.08
-1.95
-27.66
-52.00
-65.63
-62.09
-41.26
-10.02
20.50
39.74
42.10
28.61
5.63
-18.66
-37.50
-47.26
-47.43
-39.45
-25.70
-8.86
7.75
20.06
23.69
15.00
-7.43
-41.47
-81.04
-117.01
-139.46
-140.87
-119.05
-78.76
-30.87
10.85
34.45
34.12
12.17
-22.20
-56.79
-81.20
-90.38
-85.30
-71.05
-53.60
-37.11
-22.91
-10.51
0.78
10.57
17.20
18.72
14.22
4.72
-6.79
-16.02
-18.67
-11.60
6.48
34.79
70.74
110.17
147.79
177.79
195.09
196.72
183.20
158.79
130.26
104.39
85.27
73.01
64.45
55.64
44.45
31.75
20.54
13.70
12.12
14.18
17.05
18.54
18.26
17.28
16.86
17.22
17.26
15.35
10.45
2.78
-6.31
-15.14
-22.42
-27.70
-31.42
-34.60
-38.43
-43.79
-50.84
-58.72
-65.37
-67.91
-63.39
-49.95
-28.14
-1.32
24.95
44.76
54.13
52.71
43.87
33.14
25.52
23.22
24.85
26.60
24.57
16.86
4.44
-9.73
-22.43
-31.84
-38.17
-43.11
-48.41
-54.54
-60.10
-62.31
-58.44
-47.32
-30.09
-9.79
9.99
26.57
38.89
47.50
53.88
59.64
66.04
73.59
81.74
88.52
90.84
85.52
70.89
48.25
22.08
-1.34
-16.30
-19.80
-12.28
3.25
22.80
42.69
59.80
71.20
73.92
65.58
45.50
15.56
-19.69
-54.25
-82.30
-99.71
-104.84
-98.56
-83.72
-64.58
-46.06
-32.83
-28.04
-32.08
-41.96
-52.00
-55.76
-48.69
-30.25
-4.31
22.46
43.30
54.15
54.89
48.78
40.50
33.96
30.97
31.13
32.70
33.62
32.32
27.97
20.66
11.28
1.30
-7.67
-14.37
-18.36
-20.03
-20.03
-18.62
-15.47
-9.90
-1.78
7.87
16.95
23.07
24.69
21.83
15.96
9.28
3.99
1.91
4.51
12.69
26.11
42.25
56.06
61.15
52.37
28.84
-4.36
-37.33
-58.90
-61.10
-42.34
-7.80
32.91
69.48
94.09
103.17
97.34
80.25
57.09
33.17
12.89
-0.90
-7.16
-6.57
-1.04
6.89
14.58
19.66
20.31
15.71
6.45
-5.07
-15.07
-19.28
-14.37
0.59
23.62
50.13
74.45
91.75
99.06
95.27
80.06
52.95
13.68
-35.80
-89.41
-136.65
-165.28
-166.32
-138.75
-91.26
-39.56
-0.14
16.49
9.50
-12.83
-37.70
-53.47
-53.89
-39.37
-15.53
9.33
27.07
31.90
21.98
0.25
-26.04
-46.64
-51.31
-33.58
6.45
61.11
117.02
159.12
175.49
160.97
118.65
58.64
-5.10
-58.81
-92.67
-103.19
-93.68
-72.51
-49.82
-33.65
-27.35
-29.02
-33.12
-33.49
-26.21
-11.13
8.62
28.09
42.45
48.37
44.75
32.81
15.69
-2.12
-15.80
-21.63
-18.37
-8.01
4.43
12.49
10.51
-4.03
-29.08
-57.94
-80.87
-88.15
-73.71
-37.99
11.26
60.86
96.48
107.81
92.39
56.36
11.81
-28.26
-54.85
-65.48
-63.76
-56.32
-49.15
-45.20
-44.11
-43.73
-42.16
-39.20
-36.07
-34.09
-33.02
-30.36
-22.27
-5.64
19.83
50.62
80.23
101.51
109.33
102.53
84.19
60.27
37.44
20.98
13.48
14.50
21.02
28.57
32.56
29.70
19.16
2.96
-14.80
-29.47
-37.72
-38.76
-34.22
-26.90
-19.10
-11.49
-3.26
6.62
18.00
29.09
37.34
41.06
40.90
39.73
41.29
48.09
59.86
73.66
85.33
91.44
90.33
82.09
67.63
47.97
24.53
-0.02
-21.22
-33.73
-33.75
-21.48
-2.16
15.78
24.27
19.43
3.16
-18.12
-36.94
-48.40
-51.91
-50.45
-48.02
-47.17
-47.67
-47.25
-43.22
-34.38
-21.79
-8.47
1.92
6.71
5.38
-0.30
-7.09
-11.87
-12.95
-10.65
-6.84
-3.91
-3.65
-6.59
-11.93
-17.81
-21.82
-21.53
-15.04
-1.69
17.25
38.25
55.87
64.24
59.02
39.63
10.28
-20.73
-43.50
-50.07
-37.52
-9.25
26.28
58.68
79.47
84.98
77.00
61.36
45.10
33.74
29.56
31.45
35.97
38.87
36.45
26.42
8.20
-17.15
-47.02
-77.34
-102.77
-117.42
-116.31
-97.32
-62.84
-20.07
20.69
49.39
59.90
52.26
32.46
9.69
-7.52
-14.43
-11.13
-1.35
10.12
19.64
25.78
28.81
29.49
28.15
24.38
17.55
7.65
-4.23
-15.95
-25.05
-29.68
-29.40
-25.43
-20.14
-16.12
-15.26
-18.06
-23.72
-30.50
-36.34
-39.29
-37.76
-30.77
-18.47
-2.68
12.75
22.44
21.16
6.33
-20.04
-50.96
-76.40
-86.83
-77.00
-48.09
-7.28
35.15
69.52
89.97
95.74
90.25
79.02
67.36
58.83
54.86
54.98
57.46
59.74
58.77
51.48
35.64
10.97
-19.94
-51.61
-76.89
-89.18
-84.74
-64.21
-32.48
2.85
33.75
53.93
60.22
52.78
34.69
11.01
-12.37
-30.01
-38.20
-35.91
-25.07
-9.91
4.58
14.28
17.21
13.88
6.72
-1.20
-7.36
-10.52
-10.81
-9.22
-6.84
-4.42
-2.29
-0.51
0.93
1.91
2.28
1.95
1.06
-0.13
-1.27
-2.00
-1.85
-0.25
3.25
8.42
13.95
17.41
15.99
7.99
-5.86
-21.86
-34.35
-37.92
-29.86
-11.59
11.67
33.07
46.98
51.11
46.96
38.53
29.89
23.35
18.70
14.08
7.58
-1.50
-12.32
-23.31
-33.17
-41.40
-48.05
-53.03
-55.54
-54.21
-47.85
-36.47
-21.65
-6.31
6.36
14.00
15.99
13.50
8.94
4.80
2.70
2.88
4.36
5.70
5.79
4.29
1.56
-1.67
-4.68
-6.87
-7.59
-6.37
-3.24
0.72
3.31
1.98
-4.66
-15.60
-27.25
-34.71
-34.14
-24.68
-9.28
6.25
15.31
13.01
-1.81
-25.74
-51.33
-69.13
-70.72
-52.12
-15.96
28.32
67.30
88.38
84.81
58.65
20.05
-16.84
-39.54
-41.83
-25.27
2.65
32.35
55.99
69.60
72.92
67.79
56.36
40.32
21.20
1.19
-16.77
-29.85
-37.00
-39.98
-43.15
-51.43
-67.53
-89.95
-113.07
-129.36
-132.78
-121.43
-98.52
-71.04
-46.96
-32.37
-29.50
-36.41
-48.22
-59.15
-64.72
-63.26
-56.36
-48.14
-43.49
-46.10
-56.63
-72.01
-86.18
-92.03
-84.10
-60.64
-24.38
18.35
59.88
93.67
116.01
126.28
126.31
119.14
108.20
96.89
88.28
84.62
86.69
93.40
102.13
109.78
114.14
114.62
112.14
108.15
103.46
97.74
89.83
78.72
64.59
49.18
35.25
25.42
21.02
21.55
25.09
29.28
32.35
33.69
33.61
32.74
31.41
29.48
26.64
22.85
18.61
14.76
12.09
10.69
9.79
7.92
3.49
-4.46
-15.57
-27.99
-38.71
-44.60
-43.64
-35.99
-24.20
-12.34
-4.38
-2.45
-6.11
-12.81
-19.43
-23.99
-26.48
-28.53
-32.00
-37.64
-44.44
-50.18
-52.58
-50.42
-44.02
-34.91
-25.22
-16.91
-11.38
-9.35
-10.87
-15.20
-20.92
-26.24
-29.36
-29.06
-25.17
-18.61
-11.25
-5.20
-2.14
-2.61
-5.74
-9.47
-11.49
-10.29
-6.04
-0.64
3.06
2.67
-2.41
-10.64
-18.95
-24.12
-24.22
-19.32
-11.08
-1.73
7.08
14.92
22.35
30.23
38.79
47.28
54.21
58.03
57.96
54.38
48.65
42.37
36.60
31.38
25.90
19.17
10.92
2.07
-5.50
-9.78
-9.70
-5.77
0.14
5.58
8.71
9.02
7.40
5.35
4.08
3.77
3.57
2.21
-1.17
-6.44
-12.57
-18.10
-21.95
-23.86
-24.33
-24.15
-23.86
-23.42
-22.42
-20.48
-17.68
-14.76
-12.80
-12.70
-14.69
-18.15
-21.83
-24.33
-24.70
-22.62
-18.42
-12.75
-6.38
-0.20
4.76
7.30
6.28
1.15
-7.57
-18.12
-27.93
-34.47
-36.08
-32.43
-24.45
-13.77
-2.20
8.82
18.33
25.96
31.74
36.04
39.44
42.56
45.90
49.70
53.87
57.92
61.01
62.30
61.38
58.82
56.51
57.23
63.73
77.42
97.49
121.09
144.57
164.93
180.78
192.16
199.49
202.64
200.75
192.75
178.29
157.91
132.49
102.55
68.33
30.63
-8.03
-43.07
-69.40
-83.96
-88.13
-87.76
-90.54
-101.80
-120.92
-140.62
-149.61
-137.62
-100.46
-42.28
25.29
87.26
130.22
145.98
132.55
92.81
32.13
-43.21
-126.44
-209.77
-284.09
-340.20
-371.00
-373.68
-350.63
-308.23
-254.34
-195.77
-137.09
-81.00
-29.31
16.48
54.97
85.37
107.50
121.34
126.44
121.98
107.60
84.80
57.37
30.55
8.68
-7.07
-19.53
-34.10
-55.41
-84.08
-115.60
-142.16
-156.73
-156.94
-146.47
-132.83
-122.89
-118.95
-117.59
-112.15
-96.83
-70.10
-35.20
1.81
35.28
61.72
79.84
89.32
89.79
81.09
64.38
42.94
21.38
3.71
-8.40
-16.37
-23.45
-32.57
-44.64
-57.98
-68.95
-73.23
-66.83
-47.11
-13.57
31.45
82.49
131.39
169.09
188.23
185.41
162.18
124.42
79.90
35.57
-4.30
-38.25
-66.39
-88.33
-101.98
-103.61
-89.50
-58.40
-13.40
37.75
84.42
116.57
128.27
119.81
97.55
71.23
50.36
40.95
44.18
57.28
75.67
95.15
112.99
127.66
137.97
142.32
138.97
126.98
107.05
81.88
55.58
32.42
15.49
5.88
2.33
1.89
0.76
-4.28
-14.77
-30.00
-47.14
-62.40
-72.61
-76.61
-75.56
-72.05
-68.60
-66.32
-64.68
-62.43
-59.09
-55.72
-54.48
-57.18
-63.72
-71.58
-76.81
-75.99
-68.00
-54.63
-39.62
-26.68
-17.80
-12.73
-9.78
-7.22
-4.45
-2.22
-2.23
-6.26
-15.69
-31.17
-52.47
-78.37
-106.52
-133.76
-156.85
-173.16
-181.46
-181.96
-175.68
-163.71
-146.80
-125.55
-100.97
-74.87
-49.63
-27.37
-9.36
4.05
13.00
17.43
17.04
11.88
3.12
-6.59
-13.92
-16.37
-13.61
-7.99
-3.66
-4.81
-13.78
-29.93
-49.77
-68.02
-79.38
-79.84
-67.32
-41.47
-2.92
47.34
108.14
177.58
252.47
327.85
397.58
455.49
496.85
519.64
524.76
515.31
495.33
468.64
438.21
406.01
373.35
341.15
310.12
280.78
253.25
227.21
201.89
176.37
149.88
122.28
94.12
66.50
40.64
17.30
-3.62
-23.26
-43.46
-66.01
-91.65
-119.25
-145.81
-167.46
-181.01
-185.40
-182.27
-175.17
-168.01
-163.46
-162.28
-163.90
-167.41
-172.65
-180.43
-191.94
-208.08
-229.21
-255.61
-287.98
-327.04
-372.23
-420.11
-463.91
-494.84
-505.12
-491.11
-455.02
-404.05
-347.41
-293.01
-245.18
-204.54
-169.40
-137.60
-107.39
-77.41
-46.22
-12.37
24.80
64.19
102.70
135.97
159.93
172.34
173.53
166.08
153.53
139.19
125.23
112.42
100.56
88.86
76.65
63.63
50.11
36.99
25.36
16.15
9.71
5.67
3.29
1.78
0.76
0.30
0.69
2.19
4.76
8.07
11.59
14.79
17.26
18.63
18.57
16.74
12.79
6.60
-1.58
-11.00
-20.58
-29.12
-35.72
-39.96
-41.95
-42.24
-41.56
-40.58
-39.76
-39.22
-38.79
-38.11
-36.74
-34.42
-31.15
-27.19
-22.95
-18.75
-14.77
-11.03
-7.57
-4.52
-2.08
-0.31
1.00
2.36
4.35
7.30
11.13
15.44
19.77
23.92
28.02
32.31
36.78
40.92
43.88
44.78
43.15
39.29
34.07
28.62
23.98
20.71
18.86
18.01
17.48
16.45
14.13
9.88
3.38
-5.18
-15.00
-24.72
-32.73
-37.61
-38.65
-36.04
-30.79
-24.44
-18.54
-14.23
-12.07
-12.07
-13.78
-16.44
-19.11
-20.74
-20.44
-17.57
-12.14
-4.66
3.84
12.20
19.44
25.01
28.80
31.12
32.41
33.05
33.31
33.27
32.96
32.47
31.91
31.45
31.26
31.50
32.30
33.72
35.70
37.90
39.79
40.75
40.42
38.85
36.57
34.28
32.46
31.11
29.73
27.65
24.37
19.82
14.21
7.76
0.47
-7.80
-17.00
-26.49
-34.98
-40.84
-42.64
-39.83
-32.97
-23.55
-13.55
-4.73
1.84
5.99
8.24
9.38
10.01
10.26
9.89
8.55
6.23
3.40
0.85
-0.68
-0.88
0.02
1.48
2.97
4.27
5.41
6.47
7.36
7.76
7.31
5.86
3.63
1.13
-1.06
-2.53
-3.32
-3.84
-4.75
-6.53
-9.28
-12.50
-15.24
-16.48
-15.51
-12.29
-7.41
-1.81
3.67
8.57
12.83
16.51
19.53
21.60
22.36
21.62
19.62
16.91
14.15
11.87
10.32
9.52
9.41
9.94
11.07
12.60
14.12
15.00
14.66
12.78
9.56
5.70
2.15
-0.26
-1.18
-0.86
-0.10
0.10
-1.12
-4.20
-9.12
-15.42
-22.34
-29.01
-34.50
-37.99
-38.82
-36.72
-31.86
-24.81
-16.45
-7.76
0.47
7.71
13.66
18.20
21.18
22.49
22.12
20.30
17.64
14.97
13.06
12.29
12.55
13.25
13.70
13.41
12.30
10.67
9.01
7.77
7.28
7.65
8.75
10.22
11.46
11.78
10.70
8.15
4.61
0.82
-2.53
-5.13
-7.23
-9.34
-11.96
-15.23
-18.94
-22.61
-25.70
-27.70
-28.15
-26.69
-23.09
-17.41
-10.09
-1.90
6.25
13.57
19.55
23.95
26.76
28.18
28.53
28.27
28.00
28.25
29.36
31.34
33.93
36.75
39.42
41.50
42.57
42.18
40.18
36.92
33.25
30.28
28.73
28.37
27.99
25.91
20.78
12.44
2.08
-8.19
-16.28
-21.02
-22.61
-22.34
-22.00
-23.01
-26.07
-31.26
-38.53
-48.25
-61.17
-77.77
-97.33
-117.55
-135.35
-148.37
-156.54
-162.27
-168.92
-178.42
-189.64
-198.67
-200.85
-193.26
-175.91
-151.13
-121.70
-89.31
-54.36
-17.06
21.20
57.68
89.39
115.00
135.83
155.46
177.94
205.70
238.49
273.64
307.40
336.38
358.47
373.02
380.54
382.34
380.38
376.96
374.23
373.34
373.59
372.24
365.13
348.48
320.49
282.43
238.18
192.63
149.53
110.16
73.37
36.93
-0.68
-39.09
-76.08
-108.68
-134.56
-152.64
-162.88
-165.61
-161.35
-151.11
-136.99
-122.25
-110.20
-102.69
-98.85
-95.53
-88.89
-76.40
-57.89
-35.06
-10.28
14.42
37.21
55.98
67.98
70.46
61.95
43.41
18.02
-10.01
-37.11
-61.20
-81.61
-98.22
-110.67
-118.32
-120.73
-118.18
-111.82
-103.32
-94.45
-86.76
-81.42
-79.02
-79.35
-81.22
-82.62
-81.46
-76.53
-68.21
-58.57
-50.52
-46.55
-47.50
-52.18
-57.90
-61.92
-62.61
-60.47
-57.58
-56.35
-58.16
-62.90
-69.84
-78.67
-89.85
-103.36
-117.19
-126.92
-127.57
-116.96
-97.97
-77.52
-62.08
-52.75
-43.38
-24.06
12.17
63.39
118.24
161.43
182.03
179.36
162.52
144.79
135.90
137.74
145.22
150.44
147.76
135.97
117.96
97.98
79.54
63.95
50.27
36.01
18.03
-6.69
-40.16
-82.74
-132.48
-184.73
-232.81
-269.21
-287.59
-284.80
-262.30
-226.24
-185.75
-149.73
-123.37
-106.43
-94.37
-81.59
-65.18
-45.85
-26.72
-10.36
3.11
15.69
29.03
41.97
50.11
47.85
32.27
6.00
-22.76
-43.07
-45.30
-24.26
19.92
82.65
156.38
231.92
299.41
349.60
375.54
374.25
347.46
300.95
242.56
179.69
117.65
59.08
4.77
-45.51
-92.38
-136.97
-181.02
-226.13
-272.53
-317.58
-355.52
-378.77
-380.32
-356.44
-308.60
-243.43
-171.05
-102.38
-46.18
-7.23
14.23
21.42
19.07
11.53
1.68
-9.04
-19.84
-29.55
-36.40
-38.63
-35.21
-26.32
-13.11
3.05
21.21
40.78
61.40
82.62
104.17
126.32
149.86
175.37
202.43
228.88
251.09
265.51
269.93
264.37
250.76
231.32
207.23
177.99
142.49
100.81
55.56
11.11
-28.90
-64.06
-97.96
-135.84
-180.49
-228.94
-272.47
-300.38
-305.69
-289.00
-257.95
-223.15
-192.81
-169.87
-152.77
-138.62
-126.26
-116.63
-110.75
-107.33
-102.34
-90.05
-65.66
-27.40
22.70
78.84
132.56
174.25
195.37
190.99
161.84
114.33
58.26
3.37
-43.69
-80.56
-108.22
-129.30
-146.54
-161.97
-176.71
-190.87
-202.87
-209.19
-205.61
-189.17
-159.97
-121.38
-78.35
-35.07
6.28
45.09
80.61
110.98
133.52
146.07
147.84
139.05
119.54
88.13
43.63
-12.82
-75.80
-135.73
-182.00
-207.19
-210.28
-196.77
-175.52
-154.28
-136.70
-122.18
-108.15
-93.37
-79.58
-70.68
-70.36
-79.29
-93.77
-106.80
-110.59
-99.41
-71.76
-30.39
19.14
70.61
118.86
160.32
192.63
213.94
222.70
218.10
201.11
175.08
145.43
118.35
98.72
88.68
87.32
91.63
98.04
103.78
107.34
108.15
106.06
101.07
93.49
84.19
74.55
66.14
60.14
56.94
56.19
57.22
59.41
62.40
65.66
67.82
66.19
57.37
39.19
12.56
-17.98
-46.20
-67.36
-80.74
-89.50
-97.40
-105.15
-109.26
-104.52
-88.87
-66.67
-47.52
-41.19
-51.60
-74.41
-99.77
-118.28
-125.90
-124.86
-120.20
-115.29
-109.66
-100.06
-83.83
-61.49
-37.01
-15.57
-0.66
7.64
12.34
17.89
28.09
44.69
66.66
90.78
112.98
129.77
139.76
144.14
145.74
147.23
149.29
149.87
145.36
132.81
112.00
86.05
60.10
38.68
23.65
13.42
3.81
-10.11
-32.17
-63.85
-103.68
-147.33
-188.38
-219.81
-236.06
-234.90
-218.20
-191.02
-159.33
-127.26
-95.81
-63.27
-27.21
13.07
55.33
95.07
127.63
150.38
163.93
171.48
176.76
181.77
185.70
185.66
178.76
163.82
141.97
115.74
87.63
59.49
33.19
11.63
-1.24
-2.26
8.11
23.95
34.78
29.63
2.19
-45.44
-102.97
-155.89
-191.29
-202.56
-190.62
-161.81
-123.97
-82.84
-40.87
2.07
46.82
93.67
141.99
190.76
239.03
285.60
328.46
364.03
387.55
394.35
381.44
348.58
298.35
235.35
165.07
93.15
24.93
-34.71
-81.77
-113.92
-131.30
-136.66
-134.63
-130.15
-126.84
-125.87
-125.92
-124.44
-119.14
-109.39
-96.75
-84.48
-76.32
-74.96
-80.85
-91.90
-103.93
-112.03
-112.18
-102.71
-84.99
-63.01
-42.09
-27.13
-20.96
-23.59
-32.39
-43.39
-52.99
-59.54
-63.88
-68.54
-75.97
-86.70
-98.70
-108.08
-110.97
-105.20
-90.95
-70.39
-46.80
-23.80
-4.86
7.20
11.14
8.36
3.15
1.38
7.87
23.93
46.53
69.90
88.48
99.62
104.07
104.53
103.37
101.16
96.95
89.51
78.62
65.42
51.90
40.03
31.21
26.21
25.19
27.62
32.16
36.64
38.76
36.98
31.26
23.13
14.90
8.59
5.08
4.17
5.13
7.42
10.76
14.84
18.80
21.22
20.59
16.30
9.24
1.74
-3.26
-3.35
2.43
13.35
27.38
42.00
54.91
64.60
70.61
73.46
74.43
74.96
76.03
77.62
78.81
78.28
75.15
69.52
62.51
55.64
49.98
45.69
42.05
38.03
32.95
26.85
20.30
14.03
8.40
3.38
-1.30
-5.87
-10.29
-14.37
-17.95
-20.94
-23.25
-24.68
-24.80
-23.10
-19.25
-13.34
-5.94
1.96
9.22
14.78
17.85
18.15
16.02
12.35
8.37
5.18
3.27
2.42
1.87
0.97
-0.29
-1.20
-0.72
1.74
5.78
10.08
13.13
14.17
13.68
13.12
13.96
16.66
20.25
22.73
22.04
17.20
8.83
-1.08
-10.03
-16.04
-18.18
-16.58
-12.06
-5.42
2.68
11.74
21.04
29.51
35.88
39.09
38.82
35.62
30.73
25.55
21.16
18.07
16.25
15.33
14.89
14.53
13.97
13.11
12.05
11.01
10.15
9.50
8.98
8.69
9.03
10.59
13.67
17.76
21.44
22.82
20.49
14.35
5.80
-2.88
-9.63
-13.54
-15.02
-15.32
-15.77
-17.22
-19.95
-23.90
-28.79
-34.12
-39.14
-43.09
-45.41
-45.75
-43.71
-38.54
-29.09
-14.42
5.39
28.64
52.22
72.65
87.14
94.14
93.18
84.42
68.61
47.67
25.59
8.26
1.85
10.07
32.12
62.41
92.53
114.34
122.47
115.41
94.94
65.06
30.68
-3.10
-31.74
-52.12
-63.19
-65.80
-61.36
-50.45
-32.22
-5.65
28.25
64.81
96.19
114.41
115.05
99.22
72.73
42.94
15.18
-9.27
-32.50
-57.93
-87.84
-122.07
-158.24
-192.65
-221.28
-240.91
-249.71
-247.36
-234.87
-213.44
-183.59
-145.15
-97.91
-42.97
16.10
73.30
121.62
155.55
173.25
177.16
172.61
165.27
158.87
154.09
149.45
143.32
135.41
127.63
123.20
124.59
132.24
144.52
158.47
170.83
178.55
178.67
169.54
151.84
128.29
103.62
83.36
71.01
65.94
62.93
53.40
30.48
-7.34
-57.70
-115.70
-175.41
-231.78
-280.99
-320.16
-348.62
-366.60
-375.38
-380.80
-390.38
-408.53
-433.60
-457.85
-470.46
-464.21
-436.14
-386.92
-323.18
-252.91
-180.98
-108.51
-34.42
52.33
149.21
234.73
300.68
344.68
364.36
360.42
336.74
299.04
252.75
199.28
139.06
74.37
7.46
-56.59
-108.65
-138.63
-139.90
-112.87
-66.65
-13.73
35.88
75.00
101.39
117.16
125.65
128.93
127.11
118.77
104.07
85.99
67.10
48.21
28.04
3.86
-26.87
-64.03
-104.09
-139.98
-162.90
-166.65
-150.10
-117.96
-79.71
-46.42
-26.62
-23.25
-32.57
-46.29
-56.04
-57.07
-49.43
-36.35
-20.76
-2.46
21.59
54.45
95.41
138.11
172.03
186.65
175.28
136.79
75.03
-3.49
-91.45
-180.53
-260.68
-320.45
-349.34
-342.75
-305.42
-251.12
-198.72
-165.51
-160.95
-183.18
-220.39
-255.03
-270.66
-257.08
-212.26
-142.88
-62.05
14.74
74.65
111.57
128.26
133.12
136.06
145.12
163.39
188.73
215.58
237.74
246.00
238.74
221.26
198.26
175.67
158.65
149.84
148.11
148.94
146.45
137.22
120.92
99.88
78.17
58.79
42.14
26.69
11.00
-4.77
-18.28
-27.59
-33.32
-38.70
-48.60
-66.85
-93.69
-124.61
-151.62
-165.84
-161.37
-137.74
-99.72
-55.79
-15.38
14.16
29.76
33.29
30.79
29.63
35.53
50.38
71.53
93.03
108.32
112.99
106.25
90.67
70.30
48.69
27.92
8.68
-8.60
-22.80
-31.76
-33.04
-25.23
-8.94
13.01
36.50
57.55
73.50
83.66
89.15
92.06
94.42
97.28
100.12
101.14
98.17
89.98
77.24
62.61
49.73
41.99
41.22
47.16
57.62
69.24
78.41
82.15
78.87
68.84
54.06
37.49
21.80
7.88
-6.00
-23.64
-49.15
-85.08
-131.46
-186.22
-246.35
-308.61
-369.28
-423.42
-464.77
-486.97
-485.96
-462.17
-420.82
-370.19
-318.23
-269.87
-226.04
-184.79
-143.48
-100.51
-55.92
-10.89
32.88
73.22
107.40
132.42
146.02
147.96
140.95
130.13
121.21
118.08
121.18
127.56
132.67
132.66
125.91
113.27
97.10
79.98
63.90
50.40
40.95
36.82
38.33
43.78
49.36
50.34
43.43
28.95
11.50
-1.66
-3.74
8.29
32.05
60.48
84.77
97.56
95.32
78.70
51.36
18.46
-14.21
-40.61
-54.86
-52.68
-33.49
-1.82
33.13
60.43
71.91
65.58
46.56
24.45
8.96
5.86
15.40
33.62
55.05
75.35
92.36
105.76
115.92
122.97
126.28
124.55
116.62
102.08
81.89
58.20
33.31
8.11
-19.16
-52.44
-95.41
-147.87
-203.55
-251.04
-278.26
-278.23
-252.88
-212.48
-170.65
-138.13
-118.52
-108.50
-101.54
-92.50
-80.21
-66.81
-55.11
-45.66
-36.08
-22.60
-2.71
22.74
49.26
70.26
80.09
76.47
61.41
40.14
18.79
2.16
-7.23
-8.58
-1.72
13.41
35.82
61.79
84.28
94.60
86.22
58.73
19.37
-19.29
-44.65
-49.52
-34.81
-8.18
20.13
42.04
54.15
57.49
55.30
50.43
44.10
36.17
26.16
14.00
0.13
-14.96
-31.07
-48.04
-65.02
-79.89
-89.29
-89.57
-78.20
-55.21
-23.92
9.40
37.12
52.62
52.70
39.02
17.87
-1.93
-12.14
-8.10
9.69
36.05
63.31
84.27
94.67
94.10
85.49
73.51
62.78
56.44
55.46
58.86
64.35
69.42
72.28
72.22
69.56
65.31
60.80
57.35
55.92
56.69
58.58
59.17
55.46
45.45
29.74
12.09
-1.62
-6.00
1.05
16.90
35.15
48.48
52.09
45.77
33.57
21.64
15.22
16.45
23.84
33.40
40.53
41.95
36.68
26.07
13.02
0.99
-7.04
-9.32
-5.53
2.95
13.30
21.95
25.71
23.00
14.65
3.58
-6.37
-12.18
-13.02
-10.58
-8.48
-11.00
-21.68
-42.02
-70.58
-102.66
-131.01
-147.73
-146.86
-126.92
-92.01
-50.69
-13.05
12.66
22.58
17.63
2.24
-17.70
-36.92
-51.77
-60.30
-61.86
-56.49
-44.66
-27.25
-5.93
16.83
38.00
54.80
65.63
70.59
71.48
71.17
72.50
77.39
86.25
97.67
108.52
114.46
110.90
94.66
65.60
27.39
-12.94
-46.97
-67.61
-71.34
-59.06
-35.44
-6.98
20.05
41.23
54.57
60.32
60.07
55.89
49.58
42.31
34.54
26.28
17.26
7.17
-4.10
-16.21
-28.34
-39.20
-47.39
-51.76
-51.78
-47.84
-41.43
-35.04
-31.80
-34.63
-44.92
-61.61
-80.72
-96.43
-103.07
-97.49
-80.63
-57.34
-34.42
-17.87
-10.62
-11.85
-18.07
-25.09
-29.82
-31.05
-29.18
-25.15
-19.48
-12.02
-2.25
10.15
24.74
40.55
56.60
72.30
87.34
101.11
112.37
119.64
122.09
120.44
116.61
112.34
107.32
98.63
82.04
54.95
19.18
-18.45
-48.29
-62.05
-56.53
-34.99
-5.48
22.72
42.52
50.81
48.20
37.52
22.26
5.56
-10.05
-22.51
-30.16
-31.98
-27.77
-18.57
-6.56
5.39
14.43
18.63
17.52
12.18
4.83
-1.80
-5.40
-4.77
-0.31
5.85
10.60
10.85
4.88
-6.73
-21.18
-34.47
-43.00
-45.02
-41.28
-34.45
-27.86
-24.02
-23.81
-26.57
-30.68
-34.45
-36.80
-37.38
-36.39
-34.12
-30.61
-25.59
-18.72
-10.00
0.03
10.38
19.89
27.52
32.53
34.73
34.67
33.61
33.29
35.12
39.25
43.91
45.86
41.71
29.83
11.56
-8.94
-26.32
-36.29
-37.32
-30.84
-20.10
-8.42
2.03
10.56
17.49
23.27
28.02
31.36
32.67
31.30
26.89
19.45
9.41
-2.50
-15.47
-28.71
-41.39
-52.32
-59.89
-62.35
-58.60
-49.08
-35.89
-22.25
-11.08
-3.85
-0.18
1.40
2.38
3.35
4.04
3.91
2.83
1.16
-0.51
-1.93
-3.26
-4.76
-6.39
-7.75
-8.43
-8.49
-8.61
-9.64
-12.00
-15.21
-18.11
-19.40
-18.32
-14.88
-9.80
-4.08
1.24
5.31
7.45
7.11
4.05
-1.19
-7.01
-10.77
-9.52
-1.42
12.97
29.97
43.69
48.23
40.39
21.50
-2.81
-24.80
-37.75
-38.59
-28.50
-11.90
5.81
20.25
29.17
32.46
31.57
28.59
25.35
22.54
19.20
12.85
0.58
-19.22
-45.23
-72.86
-95.46
-106.66
-102.77
-84.11
-54.79
-21.11
10.49
35.24
50.91
57.71
57.35
51.91
42.99
31.41
17.44
1.32
-16.30
-34.11
-50.40
-63.33
-71.32
-73.19
-68.50
-57.81
-42.83
-26.36
-11.68
-1.56
2.56
0.91
-4.99
-13.01
-21.21
-28.09
-32.75
-34.78
-34.55
-33.29
-32.96
-35.58
-42.29
-52.30
-62.77
-69.62
-69.04
-58.98
-40.14
-15.96
8.06
25.76
31.92
23.77
1.95
-29.03
-61.59
-86.86
-96.96
-87.13
-57.00
-10.64
44.05
96.88
137.30
156.93
151.84
123.98
81.28
35.83
0.81
-13.15
-1.11
34.55
84.42
134.87
172.23
187.04
176.84
146.69
107.09
70.41
46.81
41.36
53.26
77.12
105.36
130.73
147.98
154.38
149.50
134.52
111.59
83.64
54.20
27.28
6.77
-4.62
-6.21
0.22
11.21
22.97
32.78
39.99
45.83
52.48
61.62
73.09
84.36
90.96
88.08
72.44
43.52
3.74
-42.22
-88.87
-131.03
-164.76
-187.76
-199.70
-202.16
-197.95
-190.11
-180.44
-168.67
-152.78
-130.42
-100.89
-66.41
-32.03
-3.83
13.55
18.94
15.21
8.27
4.79
9.79
24.83
47.43
71.89
91.25
99.47
93.30
73.12
42.59
7.20
-27.39
-56.62
-77.52
-88.42
-88.19
-76.00
-51.64
-16.22
27.21
73.88
118.45
156.47
185.49
205.29
217.36
223.94
227.31
229.65
232.98
239.06
248.75
261.27
273.78
281.96
281.43
269.48
246.08
213.80
176.57
138.01
100.29
63.91
28.33
-7.36
-43.88
-81.52
-119.88
-156.79
-187.66
-205.80
-204.72
-181.17
-137.56
-81.81
-24.45
25.37
63.05
88.59
104.46
112.65
113.39
106.13
91.70
73.50
56.42
44.18
36.65
29.56
16.60
-7.27
-43.26
-88.48
-137.65
-185.39
-227.83
-263.12
-290.66
-310.27
-322.10
-326.64
-324.84
-317.64
-305.37
-287.21
-261.76
-228.27
-188.12
-145.66
-107.46
-80.35
-69.07
-74.49
-93.38
-119.86
-147.24
-169.97
-185.03
-191.96
-192.29
-188.35
-182.42
-176.01
-169.73
-163.38
-156.17
-147.06
-134.85
-118.53
-97.66
-72.61
-44.57
-15.31
13.33
39.81
62.79
81.19
94.19
101.68
104.63
105.02
105.19
106.78
109.86
112.99
114.16
111.67
104.87
94.38
81.46
67.69
54.71
44.05
36.70
32.53
29.92
26.12
18.48
5.59
-11.93
-31.88
-51.53
-68.61
-81.68
-90.00
-93.06
-90.40
-82.02
-68.78
-52.67
-36.60
-23.69
-16.38
-15.75
-21.21
-30.88
-42.27
-52.92
-60.95
-65.08
-64.39
-58.23
-46.24
-28.84
-7.38
15.94
38.64
58.75
75.36
88.73
99.94
110.74
123.10
138.79
158.66
181.98
206.32
228.52
246.01
257.96
265.40
270.28
274.11
277.06
278.02
275.60
269.18
259.31
247.26
234.20
220.61
206.28
190.89
174.58
158.10
142.59
129.20
118.73
111.43
106.84
103.95
101.48
98.17
93.25
86.61
78.67
70.14
61.47
52.56
42.64
30.45
14.74
-5.30
-29.78
-57.96
-88.49
-119.80
-150.57
-180.24
-209.41
-240.03
-275.08
-317.30
-367.30
-422.01
-474.25
-514.11
-531.72
-520.50
-479.61
-414.61
-336.31
-258.08
-192.64
-149.50
-133.41
-144.10
-176.98
-224.45
-277.59
-328.01
-369.39
-398.34
-414.13
-417.73
-410.57
-393.83
-368.48
-335.84
-298.26
-259.03
-221.37
-187.09
-155.74
-125.05
-92.45
-56.68
-18.19
21.45
60.76
98.87
134.77
166.56
191.46
207.35
214.89
218.01
222.17
230.67
241.66
248.42
242.78
220.12
182.52
138.16
97.56
68.69
54.07
51.08
54.50
59.56
63.47
64.98
63.17
56.40
42.39
19.53
-11.38
-46.22
-77.52
-96.52
-96.63
-76.97
-43.87
-9.17
14.32
18.61
4.22
-20.37
-42.76
-52.36
-44.75
-22.72
5.69
31.36
47.60
51.97
46.01
33.69
19.75
8.28
1.82
0.94
4.45
9.99
14.70
15.96
11.70
0.76
-16.59
-38.57
-61.91
-82.56
-96.73
-102.32
-99.04
-87.95
-70.62
-48.18
-20.81
12.12
51.11
95.26
141.10
182.27
210.70
219.63
207.10
178.07
143.11
113.87
97.74
94.46
97.48
98.77
94.55
87.80
86.12
96.30
119.19
148.22
172.22
181.02
170.19
142.70
107.25
74.13
51.29
42.03
44.96
55.88
70.09
84.14
95.91
103.32
102.66
88.43
54.96
-0.12
-72.86
-152.02
-221.55
-265.65
-273.68
-243.67
-182.46
-103.52
-23.08
43.46
84.19
92.44
67.69
15.95
-51.18
-118.61
-171.21
-197.61
-193.14
-160.83
-110.28
-54.93
-8.23
19.83
25.35
11.32
-13.40
-36.86
-47.65
-38.06
-6.51
42.49
99.86
154.50
196.12
217.23
214.58
190.19
151.41
109.75
77.95
65.52
74.55
97.69
120.48
127.44
108.91
65.77
9.25
-43.98
-79.09
-88.88
-75.22
-46.39
-12.22
19.86
46.05
64.90
75.28
75.06
61.80
34.55
-4.77
-50.95
-96.24
-132.30
-152.17
-151.91
-132.05
-97.84
-58.04
-22.45
1.39
10.32
5.78
-8.53
-29.57
-56.45
-89.44
-127.43
-166.29
-199.77
-222.55
-233.55
-236.80
-239.24
-246.59
-260.04
-275.92
-288.13
-291.63
-284.69
-268.88
-247.26
-222.51
-195.97
-167.81
-137.86
-106.25
-73.19
-38.76
-2.83
34.61
73.19
112.08
150.03
186.00
219.59
251.43
283.44
318.57
360.33
411.32
471.43
536.42
597.83
644.84
667.55
660.71
626.09
572.00
510.24
452.14
405.20
371.90
350.62
337.65
328.87
320.61
309.87
294.39
272.98
245.94
215.15
183.38
153.32
126.40
102.41
80.01
57.60
34.29
10.04
-15.21
-42.19
-72.59
-108.21
-149.76
-195.70
-242.07
-283.31
-313.50
-327.36
-320.94
-292.46
-243.54
-180.31
-113.44
-56.09
-19.62
-9.26
-21.70
-46.52
-71.13
-86.51
-91.13
-90.96
-95.69
-113.49
-146.93
-191.81
-238.83
-277.17
-297.83
-295.74
-270.55
-226.70
-172.55
-118.88
-76.56
-53.41
-51.31
-65.02
-83.72
-94.94
-89.29
-63.81
-22.44
26.39
73.53
112.01
138.30
151.30
151.09
138.23
114.52
83.89
52.05
25.12
7.56
0.81
3.40
12.00
22.30
29.64
29.64
19.08
-2.93
-34.62
-72.42
-112.59
-153.19
-194.51
-237.52
-281.28
-321.27
-349.99
-360.39
-349.62
-321.00
-282.58
-243.30
-209.05
-180.69
-154.71
-125.45
-87.72
-38.41
22.71
92.70
165.75
234.12
289.65
325.79
339.55
331.97
307.41
271.66
230.03
186.16
141.91
98.13
55.68
16.29
-17.08
-40.08
-47.60
-35.26
-1.51
50.56
112.68
173.41
221.68
250.19
257.12
245.08
218.21
179.40
129.67
70.25
5.42
-56.20
-103.83
-129.12
-130.79
-115.99
-97.23
-86.24
-88.13
-99.18
-109.20
-107.09
-86.69
-49.87
-5.65
33.58
56.54
56.45
32.31
-11.42
-66.40
-122.37
-169.68
-201.38
-214.84
-212.59
-201.65
-191.55
-191.31
-206.17
-235.54
-273.07
-309.15
-334.70
-344.81
-339.68
-323.34
-300.62
-274.39
-244.69
-209.93
-169.41
-125.30
-82.53
-46.62
-20.89
-4.61
6.85
19.86
39.62
68.01
102.95
139.67
172.91
199.06
217.30
229.32
237.54
243.58
247.36
247.59
243.13
234.41
223.48
212.85
203.91
195.34
183.68
165.08
137.73
103.72
68.91
40.70
25.03
23.85
34.45
50.94
66.80
77.18
80.05
75.71
65.42
50.35
31.46
10.17
-10.80
-27.55
-36.28
-35.23
-26.37
-15.61
-11.06
-20.03
-46.10
-87.21
-136.19
-183.15
-218.69
-236.92
-236.76
-220.93
-194.27
-161.67
-127.03
-93.63
-64.74
-43.77
-33.50
-34.66
-45.03
-60.03
-74.56
-85.03
-90.65
-92.91
-93.81
-93.88
-91.34
-82.98
-66.31
-41.56
-12.33
15.76
37.74
51.85
60.63
69.68
84.59
107.47
135.32
161.71
180.30
188.73
189.50
187.42
185.36
181.34
169.36
143.91
105.25
61.59
26.71
13.55
27.90
65.62
114.90
161.97
196.97
216.64
223.38
221.78
215.24
204.32
187.12
160.97
124.00
76.15
19.13
-44.03
-109.67
-173.75
-231.85
-279.21
-311.05
-323.58
-315.31
-288.21
-247.83
-202.04
-158.46
-121.83
-92.27
-65.47
-34.83
5.27
56.35
114.82
173.08
222.49
256.48
272.46
272.02
259.53
240.11
217.86
195.31
173.64
153.60
136.00
121.65
110.54
101.09
90.17
74.16
50.70
20.10
-14.05
-45.62
-67.78
-74.90
-63.88
-34.61
10.05
64.68
122.00
173.75
212.41
232.95
233.94
217.45
187.47
147.75
100.21
45.15
-16.70
-81.82
-142.67
-189.07
-211.95
-207.66
-180.96
-144.27
-113.84
-103.62
-119.75
-157.98
-205.43
-245.30
-262.86
-249.98
-207.08
-142.35
-69.17
-2.77
43.45
61.10
49.29
15.01
-28.93
-68.10
-91.64
-95.78
-84.40
-66.34
-51.10
-45.10
-50.02
-63.50
-80.92
-97.29
-108.47
-111.68
-106.04
-92.64
-74.61
-56.33
-41.83
-32.95
-28.47
-24.38
-15.51
2.17
29.71
64.34
100.31
130.74
150.24
157.06
153.95
147.46
145.39
153.69
173.72
201.41
228.32
244.55
241.98
217.01
171.62
112.68
49.75
-7.53
-51.92
-80.05
-92.54
-92.81
-85.33
-73.98
-61.40
-49.26
-38.92
-31.80
-29.06
-30.64
-34.75
-38.36
-38.70
-34.85
-28.57
-23.60
-23.86
-31.28
-44.60
-59.69
-71.46
-76.14
-73.11
-64.88
-55.65
-48.95
-45.76
-44.40
-42.16
-37.75
-32.76
-30.91
-35.51
-46.71
-60.54
-70.69
-71.81
-62.44
-45.75
-27.67
-13.70
-6.22
-3.74
-2.04
3.41
15.44
34.18
57.19
80.57
100.36
113.75
119.86
120.01
117.29
115.09
116.05
120.91
128.50
136.27
140.87
138.55
125.76
99.91
60.58
10.72
-42.88
-90.72
-123.22
-134.23
-123.58
-97.32
-65.16
-36.44
-16.56
-6.00
-1.95
-1.47
-3.92
-11.00
-24.61
-44.32
-66.17
-83.97
-92.31
-89.30
-77.38
-61.60
-46.62
-34.56
-24.96
-16.37
-8.47
-2.80
-2.07
-8.26
-21.21
-38.55
-56.72
-72.71
-84.72
-92.37
-96.12
-96.72
-95.16
-93.32
-94.55
-103.42
-124.19
-158.56
-203.85
-252.78
-295.42
-322.50
-328.93
-315.27
-286.80
-250.71
-212.65
-174.81
-136.20
-94.41
-47.73
3.75
58.53
115.33
173.88
234.84
298.45
362.85
423.57
474.27
509.29
525.93
525.51
512.33
491.29
465.52
435.51
400.25
359.42
315.13
272.06
235.86
210.62
197.24
193.30
194.43
196.45
196.83
195.16
192.54
190.20
188.50
186.88
184.57
181.47
178.60
177.60
179.58
184.02
188.48
189.52
184.19
171.41
152.33
129.74
106.70
85.49
66.98
50.82
36.00
21.43
6.34
-9.75
-26.91
-44.97
-63.57
-82.43
-101.47
-121.05
-141.96
-165.33
-192.54
-225.15
-264.77
-312.46
-367.77
-427.94
-487.82
-541.08
-582.04
-607.73
-618.82
-619.00
-613.01
-604.56
-595.17
-584.38
-570.88
-553.43
-531.28
-503.61
-469.16
-426.12
-372.80
-308.33
-233.25
-149.51
-60.31
29.92
116.05
192.87
256.20
304.13
337.64
360.14
375.88
388.21
398.61
406.90
412.14
413.55
410.84
403.95
392.83
377.68
359.77
341.94
328.25
322.61
326.88
339.63
356.13
369.94
375.15
368.24
348.79
319.07
282.67
243.13
203.10
164.11
126.93
91.70
58.34
26.36
-5.17
-37.41
-71.64
-108.80
-149.45
-193.57
-240.31
-287.87
-333.87
-376.17
-413.64
-446.52
-475.62
-500.99
-520.77
-531.35
-528.78
-510.87
-478.55
-435.56
-386.51
-335.05
-282.86
-230.31
-177.70
-126.43
-78.89
-37.78
-5.29
17.03
28.09
27.14
14.12
-9.63
-40.91
-74.98
-106.66
-131.74
-147.84
-154.00
-150.06
-136.18
-113.06
-82.64
-48.08
-13.17
19.10
47.42
72.35
95.46
118.03
140.25
161.26
179.82
194.68
204.58
207.81
201.88
184.35
154.13
112.77
64.79
16.56
-25.64
-57.48
-77.47
-86.60
-87.21
-81.79
-72.43
-60.92
-49.29
-39.99
-35.59
-37.21
-43.17
-48.63
-47.21
-34.00
-7.99
27.00
63.80
94.76
115.11
124.69
127.55
129.41
134.36
143.16
153.01
158.94
155.19
137.41
104.10
57.48
3.33
-50.89
-96.19
-123.34
-123.85
-93.74
-34.46
46.43
136.34
219.73
279.96
305.83
294.81
254.52
195.76
129.45
63.26
0.86
-57.79
-117.59
-182.28
-252.62
-323.89
-392.92
-456.30
-509.54
-546.33
-560.79
-553.80
-529.15
-492.38
-446.06
-396.48
-349.84
-310.50
-279.21
-231.60
-156.29
-57.92
26.58
89.95
133.69
165.33
187.06
200.51
206.87
203.04
187.48
162.56
138.59
124.55
127.97
152.20
195.21
248.18
294.98
321.10
319.46
294.92
255.85
211.64
169.67
134.63
108.43
89.91
78.37
73.90
77.69
86.49
93.94
92.98
79.33
52.97
16.96
-23.36
-62.32
-94.59
-117.53
-130.40
-133.96
-130.50
-124.20
-120.46
-123.24
-132.44
-142.54
-145.16
-132.79
-102.68
-58.35
-7.96
39.60
78.20
105.86
123.45
132.35
133.23
126.61
114.06
98.74
84.17
71.99
60.89
47.53
29.21
6.55
-16.44
-34.51
-44.78
-48.73
-51.44
-58.14
-70.47
-84.80
-93.90
-90.76
-72.52
-42.24
-7.52
23.08
43.85
53.69
55.69
54.88
55.27
58.01
60.68
58.45
46.28
21.74
-13.34
-52.70
-87.68
-110.56
-117.51
-109.86
-92.60
-71.33
-49.33
-26.27
0.49
33.61
73.46
117.12
159.51
195.28
220.29
232.57
232.01
219.57
196.76
165.52
128.63
89.81
53.25
22.60
-0.36
-15.99
-26.17
-32.52
-35.00
-31.54
-19.35
2.82
32.97
65.73
93.83
110.02
109.08
88.73
50.06
-2.18
-60.02
-113.44
-152.48
-170.47
-165.97
-143.26
-110.74
-77.66
-51.52
-36.39
-32.67
-37.75
-46.81
-53.87
-53.30
-41.57
-18.72
11.58
43.13
69.62
86.91
94.24
94.21
91.16
89.18
90.40
94.13
97.14
95.26
85.62
68.70
49.23
34.69
32.07
44.51
69.77
101.41
132.08
156.88
174.98
188.67
200.81
212.24
220.73
221.76
210.59
184.10
142.01
86.95
24.06
-39.82
-97.24
-141.73
-169.28
-179.33
-174.84
-161.54
-146.47
-136.32
-135.45
-144.23
-158.39
-170.08
-170.61
-154.40
-122.12
-81.69
-45.84
-26.92
-31.24
-55.80
-89.33
-117.40
-128.85
-120.54
-97.77
-70.56
-47.84
-33.16
-23.82
-13.89
1.26
21.73
43.31
60.55
70.44
74.24
76.06
79.72
86.12
93.32
98.72
102.11
106.68
117.14
136.31
161.99
186.94
201.25
196.81
170.99
127.84
76.76
28.98
-5.90
-22.45
-20.33
-4.15
18.15
37.73
47.42
44.36
30.24
10.19
-9.88
-25.40
-35.01
-39.87
-41.80
-41.71
-38.37
-30.59
-19.62
-10.03
-7.19
-14.58
-31.04
-50.63
-66.41
-72.53
-68.17
-57.38
-45.68
-35.49
-25.86
-14.41
-0.59
11.48
17.63
15.81
8.20
0.85
1.16
12.50
32.33
54.22
70.76
80.93
89.11
101.48
111.92
113.70
101.59
75.61
50.84
30.09
14.08
3.35
-5.85
-14.55
-21.54
-25.26
-24.62
-19.51
-12.43
-4.78
1.94
5.72
5.24
0.94
-5.36
-11.17
-14.74
-17.49
-21.95
-31.91
-51.18
-80.64
-116.63
-152.22
-179.56
-193.07
-191.97
-178.35
-156.01
-129.06
-100.77
-74.02
-52.33
-39.66
-38.78
-49.64
-67.62
-85.17
-95.26
-94.48
-84.44
-70.57
-58.90
-53.34
-54.50
-60.20
-67.29
-73.01
-75.13
-71.62
-60.64
-41.39
-15.41
12.77
36.28
47.90
43.08
21.94
-10.30
-45.09
-73.57
-89.64
-91.50
-81.24
-63.09
-41.33
-19.00
2.15
20.86
35.68
45.13
48.60
47.32
44.58
44.64
50.79
63.70
81.39
100.03
115.59
125.27
128.26
125.67
120.05
114.38
111.18
111.51
114.20
116.02
112.98
102.13
83.50
60.72
39.84
26.91
25.40
34.72
50.45
66.16
75.64
74.70
62.22
40.24
13.42
-12.23
-31.36
-41.22
-42.81
-40.44
-39.73
-44.86
-56.70
-72.67
-88.14
-98.73
-101.87
-97.39
-87.04
-73.66
-60.48
-50.37
-45.08
-44.39
-45.83
-45.77
-41.70
-34.31
-27.82
-27.88
-38.09
-57.44
-80.11
-98.35
-106.34
-102.74
-90.68
-75.12
-59.93
-46.27
-33.06
-18.85
-3.57
11.20
23.23
31.00
34.70
35.95
37.05
39.92
45.49
53.34
62.01
69.49
73.91
74.30
71.01
65.75
61.04
59.33
62.21
69.72
80.30
91.09
98.37
98.84
90.28
72.43
47.36
19.35
-6.22
-24.49
-32.91
-32.34
-26.78
-21.79
-21.89
-28.45
-39.15
-49.17
-53.86
-51.09
-42.24
-31.32
-22.80
-19.61
-22.46
-30.28
-41.41
-54.25
-67.25
-78.48
-85.42
-85.55
-77.16
-60.29
-37.06
-10.77
15.03
37.34
53.89
63.22
64.16
56.23
39.94
17.28
-8.30
-32.66
-52.06
-64.32
-69.07
-67.45
-61.14
-51.70
-40.30
-28.04
-16.44
-7.16
-1.36
1.19
2.44
5.32
12.19
23.60
37.81
51.55
61.73
66.66
66.93
64.90
63.67
65.58
71.08
78.25
83.05
81.02
68.87
46.41
17.05
-13.11
-37.18
-50.02
-49.74
-38.15
-19.95
-1.24
12.35
17.45
13.91
4.92
-4.42
-9.39
-7.77
-0.83
7.42
12.36
10.93
2.74
-10.28
-25.24
-39.43
-50.72
-57.29
-57.54
-50.43
-36.22
-17.00
4.03
23.51
39.21
50.29
56.68
58.30
54.30
43.56
25.47
0.97
-27.19
-55.09
-78.68
-95.00
-102.65
-101.93
-94.54
-82.99
-69.97
-57.67
-47.36
-39.19
-32.36
-25.47
-16.98
-5.71
8.82
26.20
45.06
63.38
78.98
90.17
96.46
98.79
99.28
100.42
103.96
109.96
116.35
119.35
114.66
99.12
72.36
37.47
0.55
-30.87
-50.14
-53.89
-43.57
-25.24
-7.68
0.91
-3.86
-20.80
-43.62
-63.67
-73.68
-70.47
-56.00
-35.85
-16.57
-3.30
1.38
-2.79
-14.64
-32.01
-51.85
-70.19
-82.52
-85.05
-76.01
-56.71
-31.33
-5.77
14.24
25.06
26.23
20.46
12.32
6.16
4.09
5.01
5.29
0.71
-10.95
-28.58
-47.93
-63.59
-71.59
-70.60
-62.05
-48.72
-33.21
-17.37
-2.46
10.30
19.49
24.16
24.55
22.33
20.09
20.22
23.89
30.58
38.57
45.82
51.00
53.97
55.75
57.97
62.13
68.61
75.89
80.62
78.42
65.70
41.59
8.98
-26.03
-56.28
-76.40
-84.65
-83.00
-75.53
-66.18
-57.18
-48.95
-41.06
-33.12
-25.41
-18.33
-12.00
-6.09
-0.31
5.13
9.46
11.91
12.34
11.36
9.72
7.38
3.54
-2.99
-12.26
-22.42
-30.22
-32.47
-27.91
-18.04
-6.42
2.88
7.02
5.36
-0.57
-7.84
-13.06
-13.29
-6.63
7.46
27.85
52.42
78.47
103.55
125.82
143.81
155.99
160.42
155.23
139.82
116.08
88.77
64.29
48.31
43.77
49.46
60.77
71.85
77.95
77.13
70.33
60.22
49.54
40.09
32.44
26.42
21.78
18.25
15.45
12.64
8.83
3.29
-3.76
-11.07
-16.74
-19.01
-17.18
-11.86
-4.77
1.92
6.17
6.58
2.53
-5.58
-16.38
-27.70
-37.07
-42.51
-43.20
-39.90
-34.68
-29.99
-27.83
-29.01
-33.09
-38.86
-44.98
-50.40
-54.61
-57.74
-60.67
-64.96
-72.36
-83.95
-99.44
-117.15
-134.64
-149.40
-159.40
-163.14
-159.71
-148.97
-132.10
-112.15
-93.51
-80.56
-75.50
-76.85
-79.93
-78.84
-69.26
-50.10
-23.37
7.39
38.57
66.98
89.57
103.02
104.30
92.11
68.16
37.55
7.86
-13.00
-19.26
-8.94
15.86
50.15
87.82
123.59
153.99
177.23
192.37
198.25
192.99
174.56
141.92
95.62
37.61
-29.33
-102.06
-176.59
-247.27
-306.59
-346.34
-360.04
-345.65
-306.61
-250.57
-186.26
-120.44
-56.24
6.04
67.07
126.39
181.74
229.69
267.00
291.72
303.32
302.11
288.38
262.71
226.53
183.09
137.67
96.77
66.66
51.35
51.45
63.01
79.60
94.51
102.69
101.76
92.02
76.10
57.15
38.35
20.32
3.07
-13.06
-26.91
-36.72
-40.82
-37.55
-27.03
-10.56
5.90
15.15
10.89
-10.29
-47.62
-96.50
-148.44
-195.48
-231.01
-255.48
-272.44
-285.81
-297.97
-309.16
-318.94
-325.67
-329.94
-308.65
-247.97
-149.59
-31.98
80.97
173.20
230.98
261.87
273.26
270.96
255.64
227.26
191.89
156.15
126.23
105.00
92.61
84.73
77.32
65.99
49.67
30.45
11.05
-7.47
-27.13
-50.53
-80.29
-114.95
-150.49
-180.20
-197.01
-196.60
-179.06
-149.21
-114.29
-82.69
-59.98
-47.82
-42.95
-38.48
-27.36
-5.19
27.85
67.91
109.08
146.35
176.57
198.37
210.86
212.33
200.65
174.85
137.26
94.10
54.48
26.97
15.96
19.43
29.52
35.75
29.10
5.12
-35.09
-86.20
-141.19
-193.64
-239.08
-275.34
-302.20
-320.74
-332.65
-339.03
-339.55
-331.91
-312.81
-279.29
-230.79
-170.10
-102.95
-36.48
22.14
66.75
92.80
98.08
83.98
56.61
26.60
6.70
7.74
34.49
83.74
145.77
208.50
262.18
302.28
329.58
347.76
360.60
370.21
376.93
380.41
380.52
377.50
371.43
361.70
346.98
325.73
297.01
260.98
218.75
171.89
122.06
70.72
19.07
-31.90
-81.46
-129.00
-173.79
-214.61
-249.75
-277.39
-296.39
-306.86
-310.16
-308.24
-302.69
-294.24
-282.95
-268.99
-253.32
-237.59
-223.60
-212.41
-203.94
-197.21
-190.85
-183.74
-175.15
-164.59
-151.57
-135.69
-116.96
-96.23
-75.10
-55.53
-39.21
-26.84
-18.06
-11.82
-7.03
-3.15
-0.23
1.37
1.49
0.54
-0.60
-1.05
-0.43
0.99
2.47
3.28
3.01
1.69
-0.55
-3.63
-7.65
-12.73
-18.81
-25.64
-32.86
-39.97
-46.20
-50.41
-51.15
-47.15
-38.00
-24.67
-9.41
5.08
16.72
24.93
30.68
35.70
41.49
48.46
55.81
62.03
65.84
66.72
65.10
61.99
58.35
54.57
50.44
45.48
39.50
32.87
26.49
21.31
17.75
15.60
14.06
12.30
9.85
6.82
3.74
1.30
-0.11
-0.53
-0.44
-0.65
-1.97
-4.90
-9.43
-14.98
-20.54
-25.00
-27.40
-27.10
-23.83
-17.66
-8.97
1.59
13.10
24.57
35.08
43.96
50.85
55.59
58.20
58.84
57.78
55.44
52.33
48.83
45.18
41.39
37.46
33.45
29.63
26.29
23.55
21.18
18.70
15.61
11.74
7.34
2.99
-0.84
-4.09
-7.21
-10.96
-15.94
-22.33
-29.77
-37.62
-45.17
-51.81
-57.07
-60.55
-61.85
-60.68
-56.96
-50.91
-42.96
-33.63
-23.34
-12.45
-1.35
9.36
18.86
26.22
30.75
32.35
31.82
30.76
31.25
34.85
41.88
50.79
58.49
61.50
57.48
46.47
31.15
15.93
5.37
2.58
8.38
21.41
38.83
57.35
74.12
86.97
94.76
97.19
94.68
88.32
79.67
70.38
61.62
53.69
45.88
37.06
26.58
15.07
4.40
-3.18
-6.01
-3.85
2.29
10.85
20.33
29.45
36.88
41.10
40.57
34.50
23.50
9.59
-4.61
-17.07
-27.21
-35.68
-43.43
-50.95
-57.59
-62.03
-63.03
-60.08
-53.73
-45.30
-36.46
-28.67
-22.86
-19.26
-17.60
-17.35
-17.87
-18.50
-18.51
-17.08
-13.44
-7.15
1.70
12.31
23.32
33.29
41.15
46.45
49.50
51.10
52.26
53.83
56.38
60.12
64.96
70.58
76.51
82.13
86.76
89.81
90.83
89.69
86.59
81.98
76.41
70.35
64.13
57.82
51.37
44.66
37.62
30.27
22.72
15.18
7.90
1.22
-4.49
-8.91
-11.89
-13.54
-14.27
-14.64
-15.15
-16.11
-17.56
-19.34
-21.22
-23.04
-24.73
-26.35
-27.94
-29.58
-31.33
-33.28
-35.42
-37.56
-39.22
-39.68
-38.24
-34.50
-28.62
-21.34
-13.71
-6.76
-1.14
2.91
5.47
6.77
7.03
6.52
5.55
4.56
4.03
4.31
5.52
7.57
10.13
12.87
15.47
17.74
19.57
20.90
21.69
21.89
21.32
19.83
17.22
13.48
8.76
3.45
-1.93
-6.96
-11.38
-15.12
-18.25
-20.89
-23.12
-25.05
-26.84
-28.53
-29.94
-30.52
-29.47
-26.01
-19.71
-10.80
-0.03
11.63
23.19
34.03
43.83
52.41
59.64
65.40
69.64
72.52
74.39
75.69
76.78
77.83
78.83
79.60
79.94
79.71
78.91
77.68
76.27
74.87
73.53
72.04
69.99
66.78
61.82
54.75
45.59
34.83
23.38
12.17
1.92
-7.05
-14.78
-21.46
-27.26
-32.28
-36.60
-40.17
-42.76
-43.84
-42.63
-38.46
-31.15
-21.33
-10.41
-0.10
8.20
13.80
16.82
17.79
17.35
15.89
13.62
10.47
6.29
0.86
-5.93
-13.83
-22.08
-29.57
-35.03
-37.47
-36.51
-32.43
-26.02
-18.29
-10.14
-2.24
4.89
11.00
15.98
19.92
23.02
25.48
27.39
28.62
28.94
28.01
25.60
21.56
16.02
9.45
2.70
-3.16
-7.18
-8.91
-8.64
-7.22
-5.74
-5.05
-5.49
-7.00
-9.37
-12.50
-16.55
-21.76
-28.28
-36.12
-45.05
-54.73
-64.75
-74.62
-83.78
-91.64
-97.72
-101.70
-103.44
-102.99
-100.57
-96.54
-91.51
-86.19
-81.14
-76.78
-73.06
-69.84
-66.90
-64.16
-61.85
-60.46
-60.52
-62.10
-64.50
-66.19
-65.36
-60.73
-52.24
-41.27
-30.04
-20.74
-14.56
-11.46
-10.47
-10.43
-10.54
-10.50
-10.38
-10.24
-10.04
-9.66
-9.06
-8.05
-6.25
-3.04
2.28
9.94
19.72
30.51
40.64
48.27
51.99
51.50
48.20
45.06
45.87
54.04
71.27
96.87
128.01
160.80
191.57
217.94
239.05
255.26
267.50
276.76
283.89
289.61
294.37
298.16
300.24
299.05
292.43
278.28
255.42
224.29
187.15
147.61
109.63
76.41
49.67
29.49
14.86
4.45
-2.79
-7.31
-9.14
-8.08
-3.94
3.16
12.49
22.47
30.67
34.23
30.75
19.27
0.84
-21.77
-45.04
-66.18
-84.23
-100.49
-118.12
-141.20
-173.52
-217.20
-271.36
-331.39
-389.29
-435.55
-462.22
-465.70
-447.72
-414.38
-373.03
-329.23
-285.14
-239.98
-191.81
-139.20
-82.13
-22.01
38.38
94.86
141.95
173.67
185.21
174.98
145.49
102.18
51.09
-3.46
-59.17
-113.89
-163.30
-200.31
-217.36
-210.50
-182.61
-143.54
-106.68
-83.65
-79.60
-91.66
-110.51
-124.82
-125.85
-110.55
-81.88
-46.71
-12.68
14.76
33.67
45.13
51.44
54.19
53.60
49.18
41.31
32.06
24.85
22.64
26.27
33.81
41.48
45.46
43.55
35.88
24.51
12.37
2.15
-4.46
-7.07
-6.39
-3.86
-1.07
0.66
0.67
-1.09
-4.22
-8.19
-12.52
-16.81
-20.61
-23.39
-24.63
-24.00
-21.63
-18.04
-13.88
-9.64
-5.54
-1.73
1.46
3.37
3.21
0.47
-4.58
-10.91
-17.00
-21.49
-23.65
-23.54
-21.86
-19.59
-17.68
-16.91
-17.68
-19.99
-23.33
-26.87
-29.66
-31.14
-31.31
-30.83
-30.67
-31.70
-34.35
-38.52
-43.66
-48.93
-53.29
-55.66
-55.19
-51.57
-45.27
-37.49
-29.77
-23.46
-19.22
-17.03
-16.39
-16.68
-17.40
-18.06
-18.11
-16.89
-13.77
-8.50
-1.36
6.85
15.04
22.23
27.79
31.61
34.07
35.97
38.35
42.24
48.33
56.65
66.45
76.61
86.05
94.40
102.08
109.97
118.80
128.49
137.95
145.35
148.93
147.54
141.34
131.61
120.45
110.03
101.94
96.51
92.39
86.67
75.76
56.94
29.99
-1.87
-32.67
-55.95
-67.58
-67.70
-60.78
-53.38
-51.04
-55.87
-66.13
-77.61
-86.12
-89.15
-86.41
-78.95
-68.09
-54.89
-40.33
-25.68
-12.54
-2.31
4.63
9.16
12.88
16.93
20.65
21.38
15.49
0.61
-22.39
-48.98
-72.64
-87.71
-91.85
-86.40
-74.62
-59.16
-40.70
-18.85
5.40
27.98
42.45
43.39
30.14
8.30
-12.32
-22.59
-18.67
-3.80
13.76
25.31
25.90
16.28
1.79
-10.71
-16.02
-12.37
-1.41
13.47
29.17
44.43
60.22
78.90
102.45
131.00
162.24
192.30
217.41
235.54
247.01
253.97
258.73
262.40
264.19
261.99
253.69
238.56
217.69
193.64
169.25
146.78
127.58
112.20
100.80
93.21
88.73
86.01
83.16
78.26
69.98
57.87
42.25
23.76
2.94
-19.93
-44.63
-71.01
-99.05
-129.17
-162.17
-198.41
-236.74
-273.79
-304.44
-323.41
-327.32
-316.06
-292.69
-261.74
-227.00
-190.03
-150.27
-106.64
-59.39
-11.16
33.53
69.90
94.68
106.91
107.47
97.99
79.98
54.82
24.58
-7.31
-36.28
-58.17
-71.04
-76.49
-79.01
-83.80
-94.20
-110.25
-128.93
-146.21
-159.40
-168.33
-174.84
-180.92
-186.71
-189.87
-186.70
-174.39
-153.15
-126.95
-102.05
-84.32
-76.64
-77.97
-84.36
-91.47
-96.71
-100.05
-102.89
-106.18
-109.11
-109.34
-104.54
-94.15
-79.94
-65.05
-52.22
-42.20
-33.46
-23.29
-9.57
7.85
26.79
43.64
54.83
58.28
54.14
44.64
33.07
22.81
16.42
15.37
20.13
30.30
44.58
61.05
77.33
91.45
102.74
111.98
121.02
131.25
142.55
153.08
160.47
163.41
162.56
160.33
159.20
159.96
160.82
157.95
146.94
124.59
90.26
46.40
-1.74
-47.28
-83.24
-104.17
-107.58
-94.22
-67.46
-31.69
9.11
52.18
95.40
136.66
173.21
202.00
220.87
229.31
228.58
220.75
207.51
189.45
166.52
139.17
109.04
78.94
51.76
28.73
8.71
-10.98
-32.58
-56.00
-78.10
-94.30
-101.12
-98.19
-88.93
-78.90
-73.16
-73.99
-80.56
-90.42
-101.76
-114.70
-130.49
-149.98
-172.49
-196.23
-219.81
-243.71
-270.22
-301.37
-336.41
-369.79
-392.95
-397.97
-381.01
-343.43
-290.51
-228.39
-161.58
-92.91
-23.48
44.45
106.32
156.42
191.00
210.52
219.68
225.11
231.00
238.75
245.47
245.31
233.20
208.66
176.68
145.80
124.41
116.34
122.21
138.93
160.93
176.74
176.74
157.62
124.71
95.39
74.36
60.52
51.60
43.92
38.26
38.31
47.62
66.77
91.94
115.20
130.26
134.02
126.66
110.97
90.64
68.48
45.66
21.82
-4.53
-32.73
-60.30
-84.14
-101.17
-109.31
-108.34
-99.92
-87.19
-73.87
-61.80
-50.87
-40.27
-29.60
-19.54
-11.74
-7.96
-9.15
-15.49
-25.80
-38.15
-50.30
-59.49
-62.59
-56.89
-41.40
-18.21
7.30
28.21
38.61
35.94
22.04
2.14
-17.41
-31.52
-38.01
-37.50
-32.51
-25.88
-19.47
-13.56
-6.98
1.92
14.27
29.82
46.73
62.32
74.18
81.23
84.23
85.01
85.25
85.30
83.86
78.83
68.83
54.39
38.03
23.26
12.94
8.26
8.69
12.60
18.20
23.92
28.44
30.63
29.65
25.29
18.23
9.67
0.84
-7.84
-16.79
-26.96
-38.86
-51.94
-64.48
-74.19
-79.19
-78.84
-74.03
-66.90
-59.98
-55.35
-53.96
-55.38
-58.16
-60.50
-61.06
-59.32
-55.52
-50.23
-43.74
-35.98
-26.74
-15.99
-4.23
7.68
18.69
27.73
33.88
36.35
34.64
29.00
20.86
12.85
8.06
8.85
15.71
27.03
39.87
51.36
59.81
65.01
67.67
68.46
67.47
64.29
58.68
51.09
42.76
35.26
29.90
27.19
26.71
27.40
27.98
27.43
25.36
22.03
18.27
15.06
13.07
12.37
12.50
12.65
12.09
10.42
7.69
4.28
0.75
-2.41
-4.91
-6.84
-8.65
-11.03
-14.58
-19.38
-24.69
-28.95
-30.19
-26.73
-17.94
-4.67
10.91
25.95
37.95
45.51
48.58
48.24
45.99
43.08
40.00
36.40
31.31
23.66
12.81
-0.96
-16.41
-31.62
-44.48
-53.34
-57.47
-57.53
-55.82
-56.08
-62.58
-78.46
-103.88
-134.93
-164.13
-183.14
-186.14
-172.79
-148.46
-121.95
-101.68
-92.15
-92.73
-99.03
-105.82
-109.45
-108.93
-104.96
-98.26
-88.22
-73.11
-51.56
-24.07
6.19
34.26
55.28
66.53
68.51
64.46
58.74
54.75
53.65
54.28
54.42
52.26
47.56
41.52
35.87
31.85
29.54
28.29
27.52
27.24
28.05
30.27
33.19
34.83
32.73
25.21
12.25
-4.53
-22.39
-38.55
-50.57
-56.62
-55.45
-46.83
-32.15
-14.47
2.11
13.87
18.90
17.78
13.09
8.16
5.59
6.49
10.49
16.31
22.45
27.64
30.94
31.70
29.58
24.59
17.20
8.28
-1.12
-9.88
-17.08
-22.12
-24.88
-25.74
-25.37
-24.36
-22.85
-20.62
-17.41
-13.47
-9.73
-7.50
-7.69
-10.09
-13.26
-14.95
-13.10
-6.51
4.79
19.92
37.39
55.48
72.24
85.40
92.57
91.85
82.67
66.72
47.91
31.42
21.69
20.44
25.59
31.83
32.76
23.53
2.76
-27.33
-62.41
-98.11
-131.52
-161.34
-186.84
-206.82
-219.32
-222.40
-215.30
-199.06
-176.38
-150.61
-124.77
-100.86
-79.85
-62.05
-47.36
-35.53
-26.02
-17.95
-10.49
-3.09
4.09
10.33
14.81
17.30
18.51
19.92
23.00
28.39
35.63
43.40
50.45
56.42
61.84
67.75
74.63
81.77
87.34
89.05
85.05
74.74
59.01
40.02
20.82
4.84
-4.73
-5.51
3.57
21.75
46.26
72.80
96.17
111.65
116.28
109.74
94.62
75.53
57.41
43.81
35.91
33.04
34.00
38.50
47.24
60.81
78.14
95.88
109.53
115.55
113.40
105.77
96.98
90.31
86.29
82.66
76.09
64.46
48.01
29.13
10.91
-4.50
-16.73
-26.88
-36.63
-47.17
-58.58
-70.16
-80.79
-89.53
-96.31
-102.20
-109.00
-118.36
-130.97
-145.80
-160.79
-173.21
-180.35
-180.43
-173.37
-160.30
-142.83
-122.39
-99.33
-74.40
-48.57
-23.22
-0.22
18.00
29.71
34.65
34.29
31.91
29.67
28.46
28.09
27.37
24.39
17.72
7.01
-7.18
-23.01
-40.47
-60.32
-83.17
-103.26
-115.23
-116.73
-110.25
-108.03
-112.14
-120.89
-131.40
-137.22
-135.13
-124.84
-107.71
-85.16
-57.85
-24.83
12.95
52.88
91.74
126.53
155.40
178.06
194.93
205.99
211.15
208.99
198.79
182.03
161.64
140.48
120.03
100.15
80.09
60.47
43.14
31.02
26.95
31.89
44.10
59.81
74.53
84.57
88.10
84.89
75.92
63.00
48.02
32.64
18.17
5.59
-4.58
-12.16
-17.54
-21.64
-25.67
-30.82
-37.86
-46.56
-55.70
-63.21
-66.96
-65.53
-58.82
-47.92
-34.75
-21.43
-9.69
-0.63
5.23
8.08
8.75
8.75
10.21
15.13
24.69
38.70
55.36
71.74
84.66
91.62
91.69
86.19
77.92
70.23
65.70
65.29
68.07
71.87
74.21
73.41
69.86
65.31
62.06
61.81
64.94
70.10
74.74
75.46
68.99
54.09
31.21
2.62
-27.81
-55.00
-73.56
-79.10
-70.34
-49.83
-22.08
7.16
33.24
53.82
69.27
81.07
90.30
96.15
90.36
68.37
31.70
-11.62
-51.99
-81.46
-100.06
-109.50
-112.00
-109.94
-103.19
-93.04
-82.00
-73.00
-67.29
-63.69
-58.94
-50.13
-36.27
-18.17
0.72
16.47
24.04
21.17
10.91
0.15
-5.37
-3.99
2.61
9.18
11.85
8.72
0.24
-11.07
-21.75
-29.26
-33.04
-32.49
-29.43
-26.71
-27.14
-31.99
-40.37
-50.06
-59.52
-68.33
-76.50
-83.82
-88.75
-88.88
-82.31
-68.13
-46.86
-21.18
5.65
31.34
54.74
75.99
95.65
113.40
129.85
147.03
165.11
182.80
198.30
209.47
214.20
210.51
194.76
165.07
122.87
68.61
3.31
-70.20
-148.28
-227.76
-306.64
-385.44
-461.22
-524.46
-565.51
-575.74
-549.19
-485.50
-390.96
-263.60
-118.19
10.94
114.09
192.57
247.54
281.02
295.80
295.63
285.42
268.66
250.25
236.51
227.92
220.59
209.68
191.89
167.13
138.65
109.78
84.43
66.02
51.88
35.30
9.10
-31.95
-89.75
-162.16
-244.09
-326.26
-395.62
-440.56
-453.09
-430.64
-377.41
-303.60
-222.62
-147.39
-85.91
-39.20
-3.84
25.52
53.68
83.25
114.70
147.59
181.41
216.36
252.79
289.84
325.07
355.21
377.43
390.73
396.51
397.95
398.86
402.27
409.30
419.01
428.82
435.36
435.45
426.77
408.02
378.63
338.54
288.04
227.97
160.02
86.88
11.77
-62.30
-133.46
-201.12
-265.21
-324.98
-377.99
-420.20
-447.25
-456.36
-447.80
-424.93
-393.09
-357.63
-322.56
-289.82
-260.01
-233.30
-210.02
-190.65
-175.18
-162.70
-151.45
-139.70
-126.67
-113.08
-100.69
-91.35
-85.73
-82.80
-80.36
-76.42
-70.45
-63.95
-59.79
-60.80
-68.25
-81.09
-96.40
-110.31
-119.22
-120.58
-112.99
-95.95
-69.88
-36.42
1.08
37.81
68.31
88.50
97.73
99.14
98.20
99.76
105.72
114.24
120.76
120.59
111.38
94.50
74.41
56.24
43.23
34.95
27.98
18.19
3.86
-12.83
-26.87
-33.44
-31.51
-25.25
-22.43
-29.85
-48.80
-73.36
-93.22
-99.62
-90.45
-71.23
-51.92
-41.56
-43.52
-54.71
-68.12
-77.10
-78.51
-73.04
-63.31
-51.21
-36.74
-18.76
3.11
26.99
48.92
64.74
72.16
71.93
67.29
62.35
59.99
60.63
62.34
62.12
57.55
48.20
35.89
23.94
15.48
11.95
12.14
12.95
11.11
5.04
-4.13
-13.12
-18.39
-18.05
-12.74
-5.19
1.41
4.84
4.57
1.45
-3.11
-7.79
-11.59
-13.86
-14.32
-12.97
-10.15
-6.30
-1.59
4.25
11.67
20.81
31.02
40.94
49.19
55.11
59.23
62.95
67.55
73.41
79.79
85.24
88.47
88.98
87.18
83.86
79.66
74.73
68.77
61.64
53.62
45.66
38.96
34.47
32.44
32.21
32.58
32.07
29.48
23.95
14.95
2.33
-13.51
-31.18
-48.28
-61.80
-69.15
-69.12
-62.43
-51.26
-38.25
-25.35
-13.31
-2.02
8.74
18.60
26.50
31.22
32.23
30.18
26.76
24.14
24.03
27.10
32.78
39.53
45.63
49.90
52.33
53.90
56.02
59.72
64.96
70.71
75.50
78.18
78.42
76.56
73.24
68.87
63.40
56.56
48.20
38.64
28.68
19.32
11.40
5.39
1.28
-1.28
-2.71
-3.42
-3.76
-4.02
-4.43
-5.06
-5.76
-6.08
-5.38
-2.96
1.72
8.82
18.02
28.56
39.27
48.83
55.91
59.46
58.85
53.89
44.79
32.01
16.16
-2.02
-21.68
-41.81
-61.36
-79.30
-94.84
-107.49
-116.99
-123.26
-126.28
-126.13
-123.12
-117.84
-111.07
-103.57
-95.90
-88.15
-80.21
-71.91
-63.28
-54.72
-46.90
-40.58
-36.34
-34.47
-34.90
-37.23
-40.68
-44.13
-46.23
-45.60
-41.17
-32.55
-20.18
-5.28
10.48
25.43
38.34
48.59
56.10
61.10
63.94
64.95
64.36
62.42
59.34
55.34
50.63
45.37
39.73
33.93
28.20
22.75
17.73
13.11
8.68
4.07
-1.15
-7.36
-14.72
-23.09
-32.03
-40.99
-49.46
-57.24
-64.44
-71.40
-78.45
-85.71
-92.91
-99.33
-103.90
-105.31
-102.40
-94.41
-81.33
-64.01
-44.00
-23.19
-3.36
14.15
28.58
39.66
47.42
52.07
53.89
53.31
50.86
47.14
42.79
38.40
34.44
31.15
28.57
26.59
25.07
23.94
23.26
23.11
23.43
23.93
24.05
23.19
20.97
17.40
12.90
8.09
3.50
-0.71
-4.88
-9.70
-15.91
-23.86
-33.21
-42.85
-51.10
-56.17
-56.70
-52.19
-43.08
-30.69
-16.76
-3.09
8.77
17.74
23.16
24.89
23.34
19.45
14.71
10.67
8.34
7.43
6.22
2.18
-6.57
-19.79
-34.59
-46.19
-49.70
-41.79
-21.68
8.94
46.68
87.24
125.85
157.65
178.31
185.32
179.29
164.40
147.01
132.82
124.32
119.69
114.24
103.32
85.43
63.52
43.96
33.90
38.59
59.67
95.07
139.85
187.15
229.45
260.14
274.95
272.58
254.78
225.43
189.42
151.34
113.49
75.66
36.35
-5.92
-51.03
-96.33
-136.39
-163.61
-170.17
-152.40
-112.78
-59.36
-3.79
41.27
64.58
58.72
22.28
-38.80
-113.73
-188.78
-250.02
-286.83
-292.48
-266.29
-217.00
-162.03
-112.55
-74.26
-50.28
-40.98
-42.59
-47.23
-45.66
-31.42
-3.76
31.82
64.57
84.24
86.52
74.14
53.97
32.14
11.15
-9.29
-29.22
-47.56
-61.96
-70.42
-74.04
-77.93
-89.16
-112.55
-146.30
-180.92
-203.23
-202.11
-173.45
-122.30
-60.79
-2.97
41.04
68.59
84.32
96.14
110.65
130.06
151.77
170.56
181.64
182.82
174.93
160.69
143.14
124.41
105.70
87.61
70.36
53.63
36.34
16.86
-6.25
-33.86
-65.90
-101.67
-140.30
-181.00
-222.81
-264.31
-303.12
-336.34
-361.30
-376.32
-380.97
-375.90
-362.92
-345.02
-325.90
-308.96
-295.46
-283.18
-266.59
-239.36
-198.39
-146.47
-91.28
-41.32
-0.57
34.56
73.73
127.30
200.12
288.16
379.70
460.40
518.78
549.55
553.78
536.46
503.55
459.92
409.13
353.82
296.49
239.66
185.79
137.28
96.20
63.85
40.38
24.77
15.01
9.16
5.77
4.23
4.26
5.06
5.11
2.59
-3.69
-13.69
-26.29
-40.55
-56.95
-77.61
-105.39
-141.87
-185.75
-232.85
-277.44
-314.56
-341.86
-359.62
-369.46
-372.69
-369.35
-358.62
-339.98
-314.33
-284.12
-252.56
-222.44
-195.10
-170.46
-147.23
-123.73
-98.28
-69.07
-34.00
9.10
61.53
122.67
189.11
254.94
312.99
356.78
382.45
389.55
380.45
358.46
326.05
284.20
233.49
175.91
116.31
62.44
22.78
3.36
4.88
22.22
46.55
69.02
84.00
90.11
88.79
81.70
69.36
51.33
27.65
-0.17
-29.42
-57.45
-82.91
-105.89
-127.25
