1495098003.00
64.000000
-0.00
-0.00
-0.00
-0.00
-0.00
-0.00
-0.00
-0.00
-0.00
-0.00
0.00
0.01
0.01
-0.00
-0.03
-0.05
-0.05
0.00
0.13
0.36
0.66
1.01
1.37
1.72
2.06
2.40
2.79
3.24
3.80
4.42
5.06
5.66
6.20
6.68
7.15
7.68
8.31
9.14
10.09
11.04
11.88
12.56
13.14
13.76
14.65
15.96
17.91
20.32
22.90
25.38
27.58
29.57
31.68
34.32
37.81
42.54
48.15
54.10
59.83
64.97
69.58
74.14
79.34
85.71
93.76
103.00
112.62
121.73
129.77
136.75
143.30
150.75
157.77
166.64
177.95
191.79
206.97
220.57
228.25
225.36
208.53
176.87
132.76
80.05
23.07
-34.94
-92.44
-149.16
-205.23
-260.37
-313.74
-363.87
-409.83
-450.91
-486.50
-515.74
-537.23
-549.22
-549.96
-538.37
-514.21
-478.67
-433.88
-382.45
-327.02
-269.84
-212.63
-156.66
-102.95
-52.37
-5.90
35.58
71.43
101.35
125.50
144.38
158.69
169.15
176.37
180.75
182.57
182.07
179.51
175.23
169.65
163.18
156.15
148.81
141.30
133.69
126.02
118.33
110.69
103.16
95.80
88.68
81.83
75.25
68.95
62.95
57.25
51.86
46.78
42.03
37.59
33.45
29.61
26.07
22.81
19.83
17.11
14.67
12.48
10.54
8.83
7.35
6.07
4.97
4.05
3.27
2.62
2.09
1.65
1.30
1.01
0.79
0.61
0.48
0.37
0.29
0.22
0.18
0.14
0.11
0.09
0.08
0.07
0.06
0.05
0.05
0.04
0.04
0.04
0.03
0.03
0.03
0.03
0.03
0.03
0.04
0.04
0.06
0.07
0.09
0.12
0.15
0.19
0.23
0.28
0.33
0.38
0.44
0.50
0.56
0.62
0.69
0.76
0.85
0.93
1.01
1.07
1.11
1.14
1.17
1.22
1.31
1.43
1.57
1.73
1.88
2.03
2.17
2.34
2.56
2.85
3.21
3.63
4.06
4.48
4.87
5.24
5.65
6.15
6.78
7.53
8.35
9.16
9.86
10.41
10.86
11.32
11.95
12.81
13.93
15.18
16.34
17.24
17.74
17.86
17.73
17.50
17.19
16.69
15.65
13.66
10.35
5.57
-0.58
-7.64
-15.08
-22.52
-29.67
-36.50
-43.13
-49.64
-56.10
-62.61
-69.25
-75.78
-81.57
-85.37
-85.79
-81.81
-73.44
-62.01
-49.65
-38.42
-29.47
-22.72
-17.11
-11.47
-5.15
1.75
8.53
14.47
19.11
22.28
23.76
23.72
22.39
20.22
17.99
15.95
14.36
13.19
12.18
10.89
9.20
7.13
4.90
2.94
1.73
1.72
3.21
5.92
8.82
10.47
9.51
5.37
-1.28
-8.67
-14.61
-17.30
-16.37
-13.10
-9.74
-8.59
-10.96
-16.70
-24.37
-31.89
-37.16
-39.16
-38.22
-35.55
-32.59
-30.21
-28.14
-25.08
-21.39
-16.31
-9.12
0.50
12.16
24.50
35.18
41.37
40.66
32.19
17.71
0.90
-13.81
-23.04
-25.70
-23.41
-19.55
-17.83
-20.68
-28.14
-38.14
-47.38
-52.50
-51.35
-43.82
-32.02
-19.75
-11.26
-9.73
-16.54
-30.86
-50.14
-70.90
-89.71
-103.73
-111.17
-111.96
-107.99
-103.28
-102.81
-110.50
-127.05
-148.91
-169.10
-179.76
-175.26
-154.19
-119.62
-77.47
-34.24
4.84
36.52
59.40
73.32
79.05
78.26
73.33
67.12
62.27
60.64
63.06
69.33
78.69
90.14
102.59
114.77
125.09
131.77
133.30
129.16
120.16
108.20
95.49
83.68
73.37
64.44
56.70
50.47
46.53
45.61
47.87
52.68
59.08
66.41
74.70
84.46
96.10
109.19
122.32
133.39
140.37
141.86
137.53
128.07
115.02
100.32
85.83
72.73
61.20
50.57
40.03
29.42
19.63
12.11
7.78
6.12
5.14
2.38
-3.52
-11.84
-20.02
-25.15
-25.74
-22.71
-18.95
-17.66
-20.73
-27.96
-37.51
-47.14
-55.40
-61.82
-66.56
-69.61
-70.50
-68.46
-63.16
-55.16
-45.88
-36.85
-29.02
-22.43
-16.67
-11.57
-7.59
-5.51
-5.78
-7.95
-10.74
-12.82
-13.66
-13.79
-14.22
-15.52
-17.07
-17.00
-13.12
-4.12
9.61
25.93
41.76
54.17
61.10
61.74
56.28
45.63
31.15
14.56
-2.26
-17.59
-30.22
-39.79
-46.78
-51.98
-56.09
-59.26
-60.97
-60.11
-55.29
-45.27
-29.58
-9.36
12.36
30.96
41.91
42.57
33.64
18.99
3.92
-7.31
-13.05
-14.40
-13.70
-12.67
-11.35
-8.42
-2.44
6.84
18.11
29.04
37.32
41.61
41.94
39.42
35.66
32.09
29.32
27.08
24.53
20.97
16.58
12.60
10.73
12.00
15.76
19.46
19.78
14.49
4.07
-7.86
-15.93
-15.55
-5.06
13.55
35.60
55.96
71.34
81.19
87.08
91.07
94.21
96.03
95.49
92.00
86.18
79.77
74.79
72.48
72.80
74.23
74.49
71.68
64.77
53.96
40.62
26.76
13.88
2.36
-8.88
-21.64
-35.95
-50.31
-62.20
-69.20
-70.13
-66.10
-59.39
-52.97
-48.99
-45.84
-40.81
-31.98
-19.02
-2.68
15.18
33.83
52.31
69.30
86.66
105.66
125.69
144.66
160.79
172.51
181.29
188.95
196.84
209.83
230.61
257.31
284.07
304.36
312.54
309.22
298.11
258.21
182.94
82.65
-21.11
-110.34
-168.70
-205.47
-228.35
-241.56
-247.38
-245.64
-235.90
-220.52
-204.18
-191.18
-185.13
-184.94
-188.37
-193.17
-194.21
-187.94
-174.56
-157.37
-140.35
-127.15
-117.52
-110.14
-103.98
-96.85
-88.07
-79.15
-72.64
-70.12
-71.90
-75.55
-78.29
-78.43
-74.68
-67.23
-57.78
-48.67
-41.53
-37.02
-34.11
-31.17
-27.02
-20.85
-12.82
-3.97
4.30
11.00
15.59
18.38
19.84
20.37
20.40
20.52
21.28
22.93
24.88
25.71
23.58
17.34
7.47
-3.55
-12.09
-14.93
-10.69
-0.52
12.67
25.47
35.34
41.20
43.21
42.11
38.60
33.11
25.93
17.34
7.74
-2.36
-12.44
-22.02
-30.77
-38.32
-44.12
-47.20
-46.16
-39.69
-27.60
-11.67
4.28
15.63
18.92
13.70
2.96
-8.28
-15.31
-16.04
-11.64
-5.54
-1.32
-1.02
-4.52
-10.26
-16.32
-21.36
-24.66
-25.79
-24.23
-19.31
-10.76
0.96
14.33
26.90
35.86
38.86
34.98
25.24
12.67
1.31
-5.28
-5.64
-1.05
5.06
8.76
7.70
2.21
-4.95
-10.21
-10.95
-6.67
1.26
10.77
20.31
29.51
38.70
48.21
57.69
66.09
72.08
74.69
73.61
69.01
61.27
50.53
36.60
19.21
-1.25
-23.13
-43.42
-58.45
-65.43
-63.75
-55.57
-44.92
-35.85
-30.62
-28.90
-28.41
-26.50
-21.79
-14.70
-7.01
-0.66
3.19
4.47
3.80
2.02
-0.16
-2.29
-4.13
-5.74
-7.33
-9.14
-11.33
-14.07
-17.82
-23.41
-31.57
-41.96
-52.52
-59.69
-60.04
-52.50
-39.71
-27.42
-21.77
-26.08
-38.87
-54.56
-66.33
-69.62
-63.97
-52.51
-39.62
-28.33
-19.16
-10.70
-1.20
10.00
22.04
33.04
41.28
45.90
47.16
45.91
42.82
37.94
30.96
21.98
12.21
3.99
-0.25
0.71
5.95
12.65
17.57
18.64
15.89
11.06
6.28
2.66
-0.12
-3.24
-7.62
-13.12
-18.75
-23.44
-26.94
-30.01
-34.02
-40.05
-48.25
-57.64
-66.48
-72.85
-75.31
-73.16
-66.56
-56.43
-44.28
-31.89
-20.92
-12.42
-6.55
-2.69
0.15
2.69
5.03
6.85
7.97
8.93
11.09
15.83
23.40
32.25
39.36
41.45
36.75
25.95
12.16
-0.43
-8.50
-10.98
-9.33
-6.41
-4.96
-6.29
-10.02
-14.73
-18.81
-21.73
-24.11
-27.07
-31.26
-36.48
-42.23
-48.69
-57.16
-68.57
-83.03
-98.95
-113.03
-121.17
-120.38
-110.44
-94.42
-77.50
-63.12
-52.98
-47.03
-44.24
-43.08
-41.94
-39.69
-35.92
-30.68
-21.40
-5.70
17.44
47.01
80.95
117.09
153.44
188.29
220.38
252.54
287.59
326.15
365.83
402.74
433.59
456.66
472.19
461.06
413.47
333.88
239.77
149.28
71.75
8.30
-43.46
-85.72
-119.69
-142.79
-153.36
-152.54
-144.42
-133.70
-123.60
-115.84
-110.80
-108.73
-107.37
-104.85
-100.72
-95.98
-92.12
-89.88
-90.34
-93.49
-99.58
-107.42
-116.12
-125.66
-136.78
-149.56
-160.12
-165.72
-162.86
-149.42
-125.11
-92.72
-57.38
-24.82
0.82
18.13
27.64
31.44
31.55
29.68
27.03
24.60
23.20
23.64
26.46
31.12
36.59
41.14
42.87
40.61
35.00
27.61
21.10
17.86
18.41
21.44
24.02
23.29
17.88
8.95
-0.37
-6.34
-6.37
-0.41
9.56
20.56
29.92
36.03
38.42
37.26
32.43
25.32
17.43
10.62
6.44
5.52
7.18
9.69
11.13
10.31
7.57
3.47
-0.87
-4.40
-6.29
-6.13
-3.87
-0.19
3.61
6.00
5.60
2.26
-2.93
-8.12
-11.85
-13.88
-15.49
-18.56
-24.40
-32.84
-42.10
-49.84
-54.30
-55.19
-53.43
-50.43
-46.90
-42.84
-37.99
-32.47
-27.14
-22.78
-20.60
-21.07
-23.38
-25.10
-23.44
-16.62
-4.89
9.50
23.18
32.85
36.58
34.36
28.62
22.44
18.11
16.27
16.34
17.95
21.43
27.84
38.01
52.72
71.34
92.15
113.05
132.69
151.41
170.39
190.35
204.47
206.55
193.89
169.19
137.91
105.23
75.64
52.96
40.12
38.35
47.50
63.91
83.37
101.00
112.26
115.08
110.07
99.51
85.85
71.33
56.73
41.26
26.83
13.96
3.04
-6.01
-14.18
-23.43
-35.62
-52.31
-74.36
-102.09
-135.47
-173.01
-211.48
-246.21
-272.05
-284.85
-283.03
-268.29
-244.93
-218.28
-192.14
-168.01
-145.64
-124.55
-105.20
-89.00
-77.24
-69.75
-64.60
-58.39
-48.05
-32.39
-12.71
7.93
26.21
40.09
49.38
55.17
59.02
62.06
64.61
66.51
67.72
68.58
69.77
71.84
74.80
78.05
80.82
82.71
83.91
85.18
87.35
90.76
95.08
99.48
102.93
104.72
104.61
102.81
99.62
95.31
89.82
82.96
74.63
64.98
54.47
43.83
33.68
24.52
16.81
11.47
9.94
13.66
23.00
36.22
49.24
56.76
54.37
40.49
16.91
-12.23
-42.77
-72.72
-103.33
-138.02
-179.90
-228.96
-280.67
-326.75
-357.89
-367.25
-352.87
-318.08
-269.83
-215.70
-161.37
-109.88
-62.63
-21.03
12.46
34.87
44.31
41.56
30.44
16.64
5.51
0.24
1.07
5.71
10.82
13.50
12.26
7.21
-0.50
-9.42
-18.49
-27.14
-35.25
-42.79
-49.58
-55.18
-58.94
-60.33
-59.18
-56.02
-51.95
-48.33
-46.11
-45.24
-44.58
-42.38
-37.14
-28.35
-16.75
-3.86
8.73
19.96
29.32
36.63
41.53
43.55
42.53
38.99
34.15
29.44
25.80
23.39
21.74
20.29
18.89
17.84
17.50
17.76
17.70
15.86
10.89
2.25
-9.32
-21.94
-33.19
-40.86
-43.83
-42.31
-37.90
-32.89
-29.29
-27.83
-27.58
-26.37
-21.80
-12.52
0.97
16.38
30.65
41.33
47.61
50.34
51.26
51.97
53.19
54.66
55.49
54.88
52.44
48.31
42.75
35.97
28.41
20.98
15.25
12.71
14.38
20.41
30.00
41.64
53.64
65.02
75.85
86.86
98.10
108.36
115.62
118.16
115.38
108.32
99.59
92.24
88.15
86.20
82.55
72.93
55.14
29.99
0.89
-27.61
-51.70
-66.00
-66.45
-53.94
-34.55
-14.88
1.60
14.41
24.35
32.12
38.15
42.11
43.52
42.62
40.58
38.78
38.40
40.05
43.67
48.65
53.63
56.69
57.50
56.82
55.52
54.70
54.92
56.25
58.42
60.77
62.57
63.64
64.30
64.71
65.55
67.81
72.69
81.34
94.28
110.99
129.81
151.80
174.45
194.22
207.47
211.38
204.67
187.82
162.91
133.03
101.38
69.92
39.79
11.11
-16.51
-43.58
-70.26
-96.11
-120.22
-141.46
-159.33
-173.48
-183.93
-191.01
-195.27
-197.29
-197.61
-196.70
-195.20
-194.25
-195.15
-199.15
-206.89
-217.94
-230.47
-241.47
-247.94
-248.07
-242.39
-233.59
-225.66
-222.34
-225.59
-235.01
-247.85
-260.01
-267.00
-264.93
-251.28
-225.65
-190.05
-148.54
-106.17
-67.12
-33.23
-3.31
26.01
58.24
94.82
133.85
170.42
198.41
212.84
211.75
196.66
171.65
141.64
110.90
82.24
57.20
36.73
21.80
13.52
12.71
19.23
31.53
46.81
61.77
73.72
81.39
85.13
86.15
85.44
82.87
76.93
65.87
49.06
28.09
6.55
-11.23
-22.16
-25.66
-23.70
-19.73
-16.93
-17.02
-20.00
-24.53
-29.00
-32.18
-33.52
-33.28
-32.32
-31.96
-33.69
-38.77
-47.71
-59.66
-72.46
-82.87
-87.38
-83.23
-69.12
-45.75
-15.59
17.70
50.06
77.86
98.50
110.57
113.89
109.33
98.53
83.65
66.91
50.31
35.26
22.50
12.18
4.05
-2.34
-7.62
-12.50
-17.84
-24.49
-33.04
-43.35
-54.57
-65.12
-73.20
-77.48
-77.54
-74.04
-68.45
-62.45
-57.34
-53.48
-50.17
-45.97
-39.22
-28.80
-14.67
2.00
19.25
34.97
47.56
56.39
61.69
64.18
64.55
63.32
60.70
56.82
51.89
46.24
40.30
34.54
29.40
25.30
22.54
21.26
21.38
22.47
23.71
24.06
22.40
18.08
11.19
2.67
-6.23
-14.80
-23.32
-33.03
-45.07
-59.16
-72.75
-81.58
-81.27
-69.48
-47.12
-18.17
11.97
38.53
58.87
72.69
81.05
85.26
86.08
83.69
78.41
71.18
63.74
58.14
55.80
56.84
59.84
62.41
62.22
58.13
50.51
41.02
31.54
23.06
15.25
6.67
-4.32
-18.54
-35.51
-53.78
-71.66
-87.93
-101.95
-113.29
-121.19
-124.43
-121.79
-112.81
-98.46
-81.02
-63.25
-47.32
-33.97
-22.45
-11.35
0.53
13.30
25.95
36.73
43.90
46.23
43.40
35.94
25.16
12.98
1.52
-7.02
-10.89
-9.22
-2.45
7.72
18.67
27.58
32.32
31.83
26.16
16.05
2.53
-13.32
-30.00
-45.40
-56.80
-61.52
-57.96
-46.30
-28.53
-7.50
14.23
35.19
54.87
72.90
88.25
99.15
103.87
101.76
94.06
83.53
73.40
66.02
62.07
60.68
60.06
58.63
55.53
50.82
45.14
39.20
33.47
27.97
22.27
15.65
7.37
-3.12
-15.99
-30.93
-46.90
-62.27
-75.03
-83.04
-84.72
-79.34
-67.39
-50.29
-30.08
-8.90
11.28
28.76
42.31
51.28
55.93
57.38
57.38
57.72
59.56
63.16
67.85
72.45
75.55
75.71
71.52
61.73
45.59
23.21
-4.18
-34.46
-65.05
-93.56
-118.13
-137.61
-151.42
-159.53
-162.41
-160.89
-155.86
-147.82
-136.67
-121.76
-102.23
-77.77
-48.87
-17.00
15.69
46.84
74.22
96.16
111.60
120.30
122.80
120.25
114.09
105.75
96.41
86.99
78.24
70.70
64.58
59.52
54.67
48.94
41.56
32.47
22.21
11.66
1.39
-8.54
-18.63
-29.64
-42.18
-56.47
-71.99
-87.48
-100.79
-109.17
-109.92
-101.31
-83.31
-57.86
-28.28
1.74
29.19
52.29
70.31
83.23
91.37
95.32
96.12
95.09
93.47
91.70
89.12
84.02
74.59
60.10
41.58
21.86
4.61
-7.04
-11.70
-10.19
-5.18
-0.11
2.02
-0.43
-7.45
-17.66
-28.92
-39.01
-45.83
-47.65
-43.24
-32.08
-14.69
7.21
30.98
53.70
73.02
87.64
97.43
103.07
105.57
105.88
104.78
102.80
100.01
95.65
88.09
75.39
56.54
32.65
7.25
-14.64
-28.46
-32.11
-26.89
-16.81
-6.72
-0.25
1.63
0.17
-2.55
-4.96
-6.57
-7.47
-7.43
-5.15
1.78
16.16
39.58
71.08
107.05
142.20
171.20
190.12
197.19
192.52
177.92
155.37
126.83
94.68
62.36
34.28
14.53
5.30
5.95
14.75
28.07
41.43
51.21
56.06
56.90
55.48
52.82
48.63
44.46
40.19
33.51
21.30
2.39
-21.39
-46.24
-67.96
-83.25
-85.46
-71.49
-43.90
-9.45
25.18
55.90
81.04
100.48
114.77
131.22
155.01
186.22
221.04
256.22
290.90
325.28
358.96
349.75
277.52
155.39
19.43
-100.09
-190.60
-251.73
-288.23
-306.30
-312.68
-307.80
-294.00
-277.58
-266.20
-263.39
-266.69
-270.96
-271.29
-265.60
-250.45
-226.43
-198.28
-172.05
-151.24
-135.72
-124.03
-115.54
-110.92
-107.72
-103.07
-94.06
-79.27
-58.17
-30.94
0.45
32.14
59.34
79.74
93.03
100.37
103.47
103.66
101.77
97.63
89.93
77.20
59.55
39.36
22.63
15.93
21.57
36.95
56.73
75.88
91.67
103.93
114.25
123.33
132.42
140.61
146.61
149.65
149.79
147.70
143.95
138.72
131.09
123.43
115.51
106.84
97.37
87.60
78.38
70.36
63.94
59.17
55.70
51.97
46.61
38.81
28.44
15.85
1.06
-15.76
-34.12
-53.24
-73.01
-93.28
-113.59
-133.22
-151.35
-168.70
-185.87
-202.41
-216.96
-228.88
-238.22
-245.52
-251.41
-256.76
-265.29
-279.54
-298.74
-319.27
-337.78
-353.28
-367.43
-383.83
-406.13
-440.08
-485.20
-531.65
-563.80
-568.54
-541.02
-484.88
-409.04
-323.51
-242.86
-177.96
-133.56
-110.35
-108.83
-128.62
-164.74
-206.45
-202.79
-127.29
3.20
142.10
251.49
318.95
351.14
362.03
363.95
363.31
355.04
333.86
301.26
265.49
235.18
215.12
205.78
204.40
206.51
203.52
190.40
169.20
147.34
132.07
126.92
132.18
145.28
161.96
174.84
178.48
171.55
156.36
136.19
113.72
91.74
71.92
54.50
37.60
20.15
3.18
-10.06
-15.60
-11.00
5.62
33.01
66.37
97.98
120.24
127.44
117.69
93.14
52.97
4.55
-40.17
-71.88
-89.36
-98.04
-105.63
-118.35
-137.44
-161.08
-184.72
-204.03
-216.02
-219.36
-210.08
-187.54
-153.93
-113.51
-71.66
-32.42
0.79
25.40
40.03
44.92
41.48
32.58
22.10
13.79
10.97
15.05
25.50
40.30
56.87
72.45
85.04
93.80
98.78
101.04
101.94
103.35
106.85
113.32
122.34
132.60
142.34
149.70
153.23
152.03
146.94
139.19
129.51
117.82
103.82
87.68
69.99
51.68
33.54
17.95
6.66
0.04
-2.91
-3.41
-2.17
0.23
3.15
5.54
8.93
15.10
25.31
39.80
58.48
81.28
107.69
136.73
153.77
148.51
120.43
78.84
34.04
-8.16
-45.14
-74.70
-93.30
-100.57
-94.20
-74.15
-44.09
-10.68
19.44
42.06
53.04
51.10
36.82
14.39
-11.19
-35.50
-55.56
-69.74
-77.85
-81.64
-84.11
-88.99
-97.83
-110.64
-126.39
-143.86
-162.01
-179.96
-196.72
-210.57
-219.28
-219.80
-210.20
-190.87
-164.83
-136.63
-110.70
-89.94
-74.98
-64.79
-57.36
-51.13
-45.52
-40.87
-37.85
-36.75
-36.96
-36.70
-33.23
-23.25
-3.81
26.73
67.85
116.56
167.91
216.08
255.83
283.52
297.74
299.45
291.86
279.79
268.54
262.21
261.98
265.22
266.26
258.60
237.85
203.82
160.82
115.90
76.06
45.66
25.32
12.44
2.86
-7.30
-20.20
-35.55
-50.97
-62.65
-66.93
-61.89
-48.60
-31.34
-16.97
-13.26
-26.47
-59.09
-108.12
-165.02
-217.34
-252.23
-260.20
-238.38
-191.81
-132.11
-74.04
-30.85
-10.54
-14.02
-36.03
-67.49
-98.76
-122.14
-133.26
-130.95
-116.51
-92.96
-64.66
-37.27
-16.74
-7.59
-11.24
-25.23
-43.71
-59.46
-66.62
-62.79
-50.41
-34.32
-19.19
-7.76
-0.70
2.88
4.45
5.39
6.38
5.82
2.37
-3.73
-10.75
-16.85
-20.85
-22.37
-21.76
-19.95
-20.72
-26.39
-36.11
-46.73
-55.70
-62.59
-69.01
-77.22
-88.76
-107.03
-132.20
-160.64
-187.00
-208.08
-223.65
-234.91
-242.38
-223.13
-166.87
-83.43
3.50
73.93
119.18
140.08
143.43
139.30
136.32
135.32
134.26
131.34
126.36
120.17
114.42
110.17
109.05
111.89
113.80
110.40
100.24
85.40
69.53
55.87
45.79
38.72
32.52
23.28
6.87
-17.18
-45.65
-73.37
-95.23
-107.83
-110.19
-104.25
-92.71
-79.33
-66.18
-53.23
-39.33
-23.67
-6.46
11.12
27.13
38.91
43.36
37.90
21.40
-4.80
-35.63
-62.37
-74.60
-64.12
-28.69
26.32
89.89
149.31
194.08
218.19
220.05
201.17
164.83
115.80
60.60
7.25
-36.13
-63.58
-73.15
-67.13
-50.25
-27.07
-0.20
29.55
61.62
93.81
121.72
140.05
144.80
134.94
112.76
82.69
49.36
16.69
-12.00
-33.35
-44.12
-42.12
-27.71
-4.75
20.12
39.51
47.68
42.22
24.02
-3.80
-37.54
-74.34
-112.34
-150.07
-185.41
-215.11
-235.31
-242.63
-235.38
-214.00
-180.93
-139.99
-95.73
-52.91
-16.14
10.69
25.35
28.28
22.62
13.44
6.02
4.30
9.99
23.00
41.84
64.27
87.76
109.70
127.86
140.83
148.41
151.67
152.91
154.22
156.86
160.97
165.73
169.88
172.25
172.31
170.53
169.23
170.98
177.38
188.06
200.34
209.83
211.79
202.66
181.06
148.89
109.25
65.52
21.05
-20.65
-55.71
-80.23
-91.33
-95.84
-98.45
-102.78
-110.40
-120.63
-131.10
-138.88
-142.08
-141.24
-138.11
-136.21
-138.12
-144.21
-152.46
-159.27
-161.06
-155.77
-143.63
-126.63
-107.32
-88.44
-72.03
-58.87
-48.94
-42.11
-38.70
-39.38
-44.44
-52.74
-62.06
-69.82
-74.24
-75.13
-73.94
-73.01
-74.41
-78.84
-85.01
-90.29
-91.74
-87.25
-76.13
-59.22
-38.39
-15.99
5.73
24.99
40.63
52.08
59.26
62.43
62.02
58.62
52.92
45.84
38.52
32.24
28.00
26.14
26.05
26.46
25.96
23.73
19.87
15.27
11.00
7.80
5.62
3.79
1.31
-2.72
-8.84
-17.18
-27.34
-38.50
-49.25
-57.73
-62.01
-60.52
-52.63
-38.84
-20.81
-0.89
18.45
35.21
48.18
56.94
61.64
62.53
59.85
53.94
45.58
36.09
27.22
20.46
16.39
14.45
13.08
10.60
6.05
-0.35
-7.50
-14.04
-19.20
-23.15
-26.83
-31.38
-37.56
-45.45
-54.44
-63.36
-70.77
-75.13
-75.16
-70.07
-59.87
-45.34
-27.94
-9.44
8.52
24.72
38.30
48.60
55.00
57.01
54.55
48.33
39.88
31.17
23.93
19.00
16.02
13.78
10.85
6.41
0.63
-5.52
-10.82
-14.37
-15.91
-15.75
-14.37
-12.24
-9.82
-7.76
-6.98
-8.51
-12.99
-20.11
-28.38
-35.39
-38.59
-36.18
-27.72
-14.21
2.41
19.90
36.29
50.13
60.49
66.90
69.27
68.01
64.08
58.91
54.01
50.59
49.04
48.85
48.86
47.80
44.85
39.94
33.81
27.66
22.60
19.29
17.69
17.19
16.92
15.91
13.41
8.91
2.34
-5.72
-13.92
-20.22
-22.42
-18.97
-9.73
3.84
19.12
33.28
44.19
50.86
53.22
51.63
46.43
38.02
27.13
15.15
3.96
-4.66
-9.71
-11.46
-11.33
-11.30
-13.07
-17.51
-24.41
-32.64
-40.62
-46.90
-50.51
-51.23
-49.49
-46.12
-42.12
-38.51
-36.18
-35.84
-37.76
-41.51
-45.81
-48.67
-47.95
-42.05
-30.54
-14.33
4.51
23.42
40.05
52.79
60.88
64.33
63.63
59.51
52.82
44.59
35.96
28.11
21.97
17.97
15.92
15.15
14.87
14.56
14.16
13.92
14.04
14.39
14.43
13.48
11.02
6.95
1.58
-4.56
-10.94
-17.15
-22.75
-27.11
-29.41
-28.80
-24.76
-17.50
-7.95
2.49
12.40
20.85
27.47
32.31
35.53
37.11
36.84
34.59
30.53
25.20
19.45
14.08
9.61
6.14
3.47
1.27
-0.72
-2.52
-3.95
-4.77
-4.84
-4.25
-3.27
-2.34
-1.87
-2.11
-3.14
-4.84
-6.99
-9.22
-11.00
-11.71
-10.64
-7.35
-1.73
5.79
14.42
23.26
31.51
38.64
44.33
48.36
50.52
50.63
48.69
44.97
40.07
34.78
29.83
25.77
22.82
20.88
19.59
18.51
17.21
15.42
13.15
10.66
8.44
6.91
6.25
6.22
6.25
5.66
3.99
1.26
-1.92
-4.52
-5.43
-3.83
0.56
7.35
15.60
24.01
31.25
36.31
38.65
38.27
35.71
31.77
27.36
23.35
20.37
18.74
18.39
18.92
19.69
20.01
19.33
17.43
14.49
10.95
7.41
4.35
2.04
0.47
-0.56
-1.39
-2.45
-4.16
-6.86
-10.69
-15.42
-20.46
-24.90
-27.81
-28.53
-26.86
-23.15
-18.17
-12.72
-7.49
-2.89
0.86
3.66
5.40
6.02
5.58
4.27
2.47
0.57
-1.09
-2.31
-3.07
-3.48
-3.64
-3.66
-3.53
-3.19
-2.53
-1.51
-0.17
1.32
2.67
3.58
3.80
3.20
1.81
-0.16
-2.29
-4.04
-4.83
-4.20
-1.94
1.84
6.73
12.17
17.59
22.53
26.66
29.79
31.80
32.63
32.40
31.33
29.80
28.14
26.60
25.26
24.02
22.71
21.22
19.55
17.80
16.15
14.73
13.63
12.92
12.61
12.73
13.27
14.16
15.21
16.20
16.90
17.28
17.60
18.43
20.44
24.19
29.83
37.11
45.40
53.99
62.23
69.62
75.70
80.05
82.27
82.18
79.87
75.80
70.59
64.86
59.10
53.62
48.63
44.26
40.52
37.23
34.05
30.57
26.53
22.06
17.55
13.47
10.06
7.07
3.87
-0.30
-5.95
-13.16
-21.54
-30.40
-38.96
-46.51
-52.45
-56.34
-57.91
-57.19
-54.68
-51.38
-48.54
-47.37
-48.64
-52.45
-58.32
-65.39
-72.86
-80.13
-86.85
-92.71
-97.34
-100.29
-101.17
-99.94
-97.01
-93.14
-89.14
-85.56
-82.49
-79.67
-76.68
-73.29
-69.53
-65.71
-62.26
-59.54
-57.67
-56.49
-55.59
-54.38
-52.28
-48.85
-43.95
-37.83
-31.00
-24.13
-17.84
-12.50
-8.27
-5.11
-2.92
-1.61
-1.04
-1.12
-1.75
-2.81
-4.21
-5.75
-7.20
-8.29
-8.85
-8.92
-8.74
-8.73
-9.24
-10.45
-12.27
-14.42
-16.61
-18.62
-20.30
-21.57
-22.39
-22.76
-22.79
-22.60
-22.26
-21.63
-20.36
-18.06
-14.46
-9.63
-4.05
1.63
6.79
11.01
14.08
15.96
16.63
16.07
14.35
11.75
8.69
5.72
3.27
1.60
0.68
0.28
0.11
-0.10
-0.48
-1.00
-1.54
-1.92
-2.00
-1.75
-1.33
-1.11
-1.50
-2.81
-5.12
-8.21
-11.54
-14.44
-16.27
-16.54
-15.03
-11.81
-7.21
-1.80
3.78
8.96
13.32
16.69
19.06
20.51
21.13
20.99
20.19
18.88
17.28
15.61
14.10
12.88
12.01
11.44
11.04
10.64
10.09
9.31
8.33
7.29
6.26
5.29
4.28
3.11
1.62
-0.28
-2.61
-5.29
-8.16
-10.87
-12.98
-14.02
-13.64
-11.80
-8.70
-4.68
-0.15
4.56
9.14
13.28
16.65
18.92
19.91
19.62
18.22
16.01
13.28
10.33
7.43
4.86
2.87
1.58
1.00
1.00
1.35
1.85
2.32
2.63
2.70
2.49
2.02
1.36
0.61
-0.20
-1.10
-2.23
-3.77
-5.77
-8.14
-10.60
-12.73
-14.08
-14.29
-13.14
-10.60
-6.86
-2.28
2.64
7.38
11.48
14.64
16.70
17.68
17.69
16.90
15.53
13.85
12.18
10.82
10.00
9.67
9.56
9.25
8.32
6.62
4.25
1.58
-0.85
-2.61
-3.42
-3.25
-2.35
-1.17
-0.23
-0.02
-0.86
-2.73
-5.31
-8.02
-10.21
-11.36
-11.20
-9.78
-7.31
-4.16
-0.64
2.96
6.48
9.84
12.97
15.80
18.20
19.94
20.82
20.72
19.72
18.11
16.32
14.80
13.85
13.55
13.76
14.22
14.62
14.75
14.51
13.84
12.79
11.37
9.58
7.43
4.93
2.10
-1.02
-4.39
-7.93
-11.50
-14.82
-17.41
-18.70
-18.19
-15.63
-11.20
-5.45
0.81
6.79
11.90
15.85
18.56
20.13
20.71
20.44
19.52
18.16
16.57
14.95
13.41
12.00
10.69
9.47
8.34
7.39
6.70
6.35
6.30
6.33
6.06
5.04
2.94
-0.30
-4.37
-8.70
-12.64
-15.75
-17.97
-19.60
-21.14
-22.99
-25.25
-27.67
-29.81
-31.22
-31.66
-31.12
-29.70
-27.54
-24.69
-21.23
-17.23
-12.87
-8.38
-3.90
0.47
4.65
8.52
11.85
14.43
16.15
17.18
17.88
18.56
19.31
19.87
19.79
18.66
16.42
13.44
10.38
7.85
6.14
5.08
4.06
2.29
-1.03
-6.35
-13.61
-22.10
-30.58
-37.56
-41.79
-42.64
-40.35
-35.90
-30.60
-25.57
-21.47
-18.45
-16.34
-14.91
-13.99
-13.52
-13.40
-13.46
-13.50
-13.42
-13.22
-13.05
-13.01
-13.17
-13.51
-13.97
-14.52
-15.14
-15.81
-16.44
-16.93
-17.24
-17.37
-17.33
-17.03
-16.24
-14.70
-12.31
-9.30
-6.14
-3.31
-1.01
1.11
3.78
7.76
13.47
20.71
28.76
36.65
43.51
48.78
52.30
54.23
54.92
54.83
54.43
54.12
54.14
54.47
54.86
54.95
54.44
53.18
51.29
49.01
46.70
44.62
42.88
41.39
39.79
37.54
34.04
28.80
21.56
12.36
1.50
-10.68
-23.74
-37.21
-50.33
-62.05
-71.07
-76.25
-77.05
-73.77
-67.52
-59.77
-51.87
-44.67
-38.45
-33.16
-28.68
-25.02
-22.28
-20.49
-19.52
-19.08
-18.80
-18.37
-17.57
-16.31
-14.60
-12.51
-10.19
-7.78
-5.46
-3.40
-1.77
-0.75
-0.42
-0.76
-1.61
-2.71
-3.86
-5.00
-6.27
-7.87
-9.89
-12.05
-13.77
-14.40
-13.45
-10.91
-7.17
-2.89
1.25
4.81
7.56
9.49
10.63
11.09
11.00
10.58
10.20
10.23
11.00
12.60
14.84
17.28
19.41
20.85
21.45
21.27
20.47
19.16
17.30
14.77
11.48
7.50
3.07
-1.46
-5.75
-9.58
-12.86
-15.58
-17.78
-19.52
-20.85
-21.80
-22.32
-22.24
-21.27
-19.10
-15.54
-10.65
-4.83
1.31
7.06
11.84
15.28
17.27
17.91
17.47
16.31
14.79
13.21
11.77
10.58
9.62
8.87
8.25
7.71
7.19
6.64
6.04
5.38
4.74
4.21
3.81
3.41
2.76
1.61
-0.17
-2.46
-4.99
-7.50
-9.82
-11.97
-14.01
-15.90
-17.32
-17.76
-16.66
-13.72
-9.02
-3.13
3.16
9.02
13.85
17.41
19.74
21.13
21.88
22.27
22.46
22.55
22.57
22.58
22.61
22.70
22.80
22.76
22.44
21.73
20.67
19.40
18.14
17.01
15.99
14.89
13.48
11.60
9.27
6.65
3.90
1.11
-1.81
-4.93
-8.23
-11.46
-14.15
-15.77
-15.93
-14.51
-11.77
-8.20
-4.47
-1.16
1.27
2.61
2.79
1.96
0.30
-1.92
-4.38
-6.75
-8.76
-10.23
-11.13
-11.60
-11.86
-12.13
-12.52
-13.01
-13.48
-13.81
-13.98
-14.09
-14.32
-14.81
-15.65
-16.80
-18.19
-19.71
-21.28
-22.80
-24.10
-24.96
-25.07
-24.19
-22.16
-18.99
-14.94
-10.38
-5.79
-1.68
1.54
3.61
4.51
4.43
3.67
2.57
1.34
0.06
-1.26
-2.61
-3.89
-4.96
-5.74
-6.22
-6.58
-7.04
-7.82
-8.96
-10.32
-11.66
-12.75
-13.54
-14.16
-14.94
-16.17
-18.06
-20.55
-23.38
-26.18
-28.54
-30.14
-30.75
-30.22
-28.46
-25.50
-21.48
-16.69
-11.55
-6.53
-2.13
1.25
3.31
3.96
3.38
1.99
0.45
-0.56
-0.47
0.99
3.68
7.09
10.47
12.97
13.98
13.28
11.14
8.21
5.28
2.97
1.46
0.42
-0.81
-2.94
-6.34
-10.94
-16.16
-21.14
-24.94
-26.80
-26.33
-23.50
-18.71
-12.58
-5.88
0.71
6.76
12.11
16.88
21.21
25.18
28.58
31.04
32.17
31.77
30.07
27.60
25.09
23.19
22.21
21.99
21.94
21.29
19.39
15.95
11.12
5.42
-0.48
-6.04
-10.89
-14.86
-17.82
-19.65
-20.17
-19.24
-16.84
-13.13
-8.29
-2.50
4.21
11.83
20.20
28.82
36.90
43.48
47.81
49.71
49.67
48.65
47.65
47.32
47.81
48.90
50.36
52.19
54.55
57.56
61.01
64.32
66.83
68.11
68.16
67.33
65.99
64.16
61.42
57.00
50.18
40.73
29.18
16.68
4.67
-5.56
-13.15
-17.85
-19.82
-19.59
-17.90
-15.61
-13.70
-13.15
-14.68
-18.55
-24.40
-31.35
-38.38
-44.69
-49.89
-53.98
-57.11
-59.36
-60.62
-60.68
-59.30
-56.42
-52.26
-47.34
-42.39
-38.19
-35.39
-34.30
-34.72
-36.03
-37.35
-37.74
-36.51
-33.34
-28.25
-21.54
-13.69
-5.26
3.15
10.92
17.50
22.47
25.60
26.91
26.60
25.03
22.60
19.71
16.69
13.80
11.21
8.99
7.13
5.51
3.95
2.27
0.33
-1.88
-4.27
-6.61
-8.70
-10.38
-11.64
-12.62
-13.54
-14.64
-15.97
-17.45
-18.80
-19.69
-19.88
-19.25
-17.84
-15.80
-13.26
-10.33
-7.17
-3.98
-1.05
1.36
3.14
4.46
5.67
7.14
9.00
11.08
12.99
14.27
14.67
14.17
13.00
11.44
9.72
8.00
6.30
4.61
2.88
0.98
-1.17
-3.52
-5.83
-7.70
-8.73
-8.66
-7.56
-5.74
-3.60
-1.46
0.50
2.25
3.73
4.87
5.54
5.65
5.23
4.35
3.14
1.67
-0.00
-1.85
-3.78
-5.67
-7.35
-8.69
-9.58
-9.99
-9.93
-9.55
-9.01
-8.52
-8.23
-8.20
-8.37
-8.68
-9.02
-9.31
-9.43
-9.16
-8.25
-6.41
-3.52
0.32
4.72
9.14
13.01
15.92
17.72
18.49
18.45
17.77
16.58
14.82
12.45
9.49
6.10
2.53
-0.94
-4.12
-6.92
-9.25
-10.99
-11.89
-11.77
-10.56
-8.50
-6.08
-3.96
-2.62
-2.26
-2.65
-3.22
-3.26
-2.17
0.35
4.20
8.94
13.89
18.34
21.78
23.95
24.88
24.78
23.91
22.48
20.67
18.64
16.60
14.76
13.26
12.12
11.20
10.33
9.36
8.30
7.31
6.58
6.16
5.95
5.63
4.83
3.28
0.92
-2.08
-5.33
-8.37
-10.77
-12.19
-12.52
-11.77
-10.10
-7.74
-4.96
-2.08
0.57
2.59
3.70
3.82
3.08
1.88
0.68
-0.17
-0.55
-0.56
-0.38
-0.19
-0.02
0.15
0.32
0.42
0.22
-0.48
-1.81
-3.72
-6.00
-8.38
-10.55
-12.27
-13.35
-13.62
-12.95
-11.32
-8.83
-5.71
-2.32
0.95
3.79
6.02
7.62
8.62
9.06
8.92
8.16
6.78
4.91
2.78
0.68
-1.12
-2.51
-3.50
-4.22
-4.77
-5.17
-5.36
-5.34
-5.22
-5.29
-5.86
-7.10
-8.90
-10.81
-12.26
-12.75
-12.07
-10.37
-7.98
-5.26
-2.45
0.41
3.24
5.90
8.09
9.45
9.72
8.87
7.21
5.17
3.25
1.74
0.74
0.14
-0.27
-0.68
-1.19
-1.75
-2.26
-2.59
-2.68
-2.59
-2.50
-2.65
-3.27
-4.49
-6.26
-8.37
-10.39
-11.86
-12.31
-11.47
-9.31
-6.05
-2.08
2.22
6.51
10.59
14.34
17.65
20.42
22.53
23.98
24.77
25.00
24.77
24.14
23.12
21.75
20.08
18.24
16.27
14.04
11.19
7.25
1.88
-4.87
-12.46
-20.03
-26.70
-32.02
-36.09
-39.43
-42.62
-45.82
-48.64
-50.27
-49.97
-47.44
-43.07
-37.81
-32.81
-28.97
-26.73
-26.02
-26.45
-27.53
-28.77
-29.68
-29.76
-28.60
-26.02
-22.22
-17.69
-13.11
-8.97
-5.47
-2.48
0.33
3.25
6.42
9.85
13.43
17.01
20.31
22.94
24.43
24.35
22.60
19.46
15.61
11.97
9.42
8.53
9.43
11.75
14.79
17.70
19.79
20.69
20.37
19.08
17.14
14.84
12.34
9.74
7.16
4.82
2.94
1.71
1.20
1.30
1.78
2.27
2.43
2.06
1.12
-0.22
-1.65
-2.93
-3.91
-4.61
-5.11
-5.45
-5.57
-5.41
-4.94
-4.36
-3.97
-4.01
-4.45
-4.96
-4.99
-4.09
-2.11
0.73
3.97
7.16
9.99
12.36
14.31
15.84
16.92
17.42
17.21
16.21
14.48
12.18
9.60
7.06
4.89
3.34
2.50
2.27
2.40
2.59
2.53
2.05
1.10
-0.22
-1.73
-3.23
-4.56
-5.72
-6.79
-7.95
-9.37
-11.08
-12.93
-14.56
-15.58
-15.64
-14.64
-12.77
-10.51
-8.42
-6.93
-6.22
-6.20
-6.65
-7.37
-8.29
-9.49
-11.05
-12.90
-14.72
-16.00
-16.23
-15.09
-12.50
-8.68
-4.04
0.93
5.76
9.98
13.20
15.18
15.91
15.64
14.81
13.92
13.30
13.10
13.17
13.27
13.07
12.37
11.12
9.50
7.88
6.76
6.63
7.85
10.49
14.34
18.90
23.47
27.37
30.04
31.21
30.94
29.53
27.40
24.92
22.23
19.35
16.15
12.56
8.63
4.53
0.52
-3.11
-6.12
-8.33
-9.71
-10.51
-11.16
-12.22
-14.13
-16.98
-20.48
-24.03
-27.01
-29.01
-30.01
-30.37
-30.55
-30.94
-31.71
-32.68
-33.48
-33.61
-32.63
-30.19
-26.17
-20.67
-13.97
-6.49
1.37
9.20
16.73
23.74
30.06
35.49
39.79
42.71
44.15
44.27
43.46
42.27
41.16
40.36
39.75
38.97
37.60
35.39
32.36
28.71
24.76
20.76
16.91
13.29
9.94
6.88
4.08
1.53
-0.78
-2.84
-4.59
-5.99
-6.97
-7.55
-7.75
-7.66
-7.43
-7.22
-7.21
-7.64
-8.68
-10.39
-12.70
-15.44
-18.36
-21.23
-23.82
-25.88
-27.13
-27.22
-25.89
-23.09
-19.04
-14.23
-9.28
-4.74
-1.05
1.53
2.90
3.06
2.11
0.31
-1.97
-4.36
-6.56
-8.38
-9.78
-10.65
-10.84
-10.11
-8.30
-5.55
-2.35
0.64
2.78
3.79
3.80
3.27
2.75
2.65
3.06
3.81
4.65
5.35
5.84
6.19
6.53
6.95
7.46
8.01
8.54
9.11
9.84
10.89
12.30
13.98
15.67
17.02
17.75
17.66
16.75
15.05
12.74
10.03
7.23
4.77
3.10
2.54
3.19
4.82
6.96
9.06
10.65
11.45
11.35
10.34
8.47
5.82
2.53
-1.20
-5.15
-9.09
-12.89
-16.51
-19.96
-23.23
-26.34
-29.33
-32.23
-35.09
-37.89
-40.48
-42.60
-43.99
-44.48
-44.18
-43.43
-42.69
-42.34
-42.46
-42.75
-42.64
-41.48
-38.87
-34.75
-29.42
-23.39
-17.09
-10.77
-4.47
1.80
7.90
13.51
18.11
21.27
22.80
22.91
22.16
21.23
20.67
20.71
21.12
21.40
21.00
19.56
17.07
13.85
10.41
7.26
4.81
3.28
2.70
2.95
3.74
4.63
5.08
4.62
2.96
0.19
-3.26
-6.70
-9.42
-10.89
-10.91
-9.60
-7.31
-4.46
-1.34
1.91
5.36
9.14
13.27
17.68
22.11
26.28
29.89
32.71
34.57
35.35
34.94
33.26
30.30
26.18
21.17
15.70
10.30
5.49
1.74
-0.70
-1.82
-1.88
-1.27
-0.42
0.35
0.84
0.99
0.84
0.49
0.23
0.40
1.40
3.58
7.05
11.64
16.97
22.55
27.93
32.78
36.87
39.98
41.85
42.22
40.86
37.70
32.82
26.60
19.62
12.63
6.44
1.67
-1.44
-3.16
-4.37
-6.30
-10.31
-17.38
-27.88
-41.51
-57.22
-73.50
-88.50
-100.22
-106.87
-107.26
-101.18
-89.72
-75.07
-59.91
-46.66
-36.73
-30.19
-26.06
-22.89
-19.52
-15.34
-10.42
-5.14
0.10
5.06
9.71
14.07
18.12
21.72
24.74
27.10
28.90
30.35
31.68
33.06
34.52
35.97
37.34
38.66
40.06
41.81
44.05
46.77
49.65
52.22
53.97
54.59
54.12
52.88
51.44
50.32
49.76
49.57
49.10
47.42
43.62
37.14
27.98
16.76
4.61
-7.13
-17.20
-24.70
-29.20
-30.69
-29.47
-26.01
-20.74
-14.10
-6.50
1.56
9.50
16.72
22.72
27.21
30.22
32.07
33.20
34.03
34.81
35.56
36.01
35.83
34.64
32.18
28.38
23.39
17.52
11.21
4.91
-1.02
-6.27
-10.67
-14.13
-16.63
-18.21
-19.05
-19.44
-19.75
-20.35
-21.46
-23.06
-24.95
-26.87
-28.72
-30.63
-32.92
-35.87
-39.44
-43.17
-46.32
-48.12
-48.03
-45.99
-42.27
-37.36
-31.82
-26.16
-20.86
-16.37
-13.02
-11.00
-10.26
-10.53
-11.44
-12.53
-13.44
-13.85
-13.54
-12.35
-10.23
-7.30
-3.85
-0.25
3.08
5.90
8.12
9.76
10.89
11.50
11.41
10.44
8.46
5.57
2.11
-1.36
-4.27
-6.22
-7.06
-6.91
-6.16
-5.32
-4.91
-5.35
-6.83
-9.19
-11.96
-14.44
-15.91
-15.90
-14.34
-11.57
-8.18
-4.85
-2.13
-0.33
0.34
-0.09
-1.44
-3.37
-5.41
-7.06
-8.00
-8.23
-7.99
-7.72
-7.75
-8.25
-9.17
-10.34
-11.60
-12.86
-14.05
-15.09
-15.89
-16.37
-16.47
-16.19
-15.56
-14.55
-13.06
-11.06
-8.61
-6.02
-3.76
-2.36
-2.27
-3.62
-6.26
-9.66
-13.11
-15.81
-17.15
-16.79
-14.76
-11.43
-7.32
-2.99
1.13
4.85
8.13
10.96
13.31
15.09
16.23
16.71
16.65
16.20
15.51
14.62
13.55
12.27
10.81
9.25
7.66
6.12
4.71
3.50
2.47
1.57
0.63
-0.49
-1.87
-3.51
-5.29
-6.95
-8.21
-8.95
-9.21
-9.16
-8.99
-8.76
-8.69
-9.00
-9.87
-11.45
-13.83
-16.91
-20.33
-23.41
-25.26
-25.67
-24.68
-22.55
-19.51
-15.88
-11.96
-7.93
-3.85
0.43
4.00
6.08
6.47
5.68
4.46
3.41
2.88
2.99
4.03
4.35
2.46
-2.23
-9.17
-17.32
-25.63
-33.26
-39.60
-43.79
-47.73
-53.30
-61.32
-71.29
-82.32
-94.08
-106.95
-121.95
-127.44
-116.68
-90.26
-55.85
-21.95
6.51
27.90
42.36
48.02
49.14
47.91
46.43
46.99
51.45
60.13
71.55
84.87
97.48
107.85
113.43
113.05
107.13
97.32
85.48
73.09
61.36
51.12
43.79
39.22
36.96
36.65
38.05
40.65
43.54
45.43
44.87
41.17
33.41
21.30
5.25
-13.73
-34.23
-54.61
-73.00
-87.48
-96.15
-98.23
-94.17
-85.64
-75.01
-64.61
-56.04
-49.86
-45.74
-42.61
-39.22
-34.53
-27.91
-19.32
-9.24
1.32
11.00
18.53
23.31
25.55
26.09
25.90
25.77
26.25
27.41
28.89
30.06
30.49
30.13
29.30
28.54
28.66
30.65
34.94
40.90
46.90
51.19
52.61
51.00
47.11
42.56
39.64
40.22
44.88
52.78
62.08
70.34
74.80
72.64
59.77
35.65
5.23
-23.25
-43.30
-53.17
-54.99
-52.55
-49.46
-47.08
-44.64
-40.66
-34.69
-27.78
-21.82
-18.62
-19.46
-25.95
-37.24
-51.15
-64.83
-75.47
-80.71
-78.89
-69.50
-51.07
-27.74
-4.21
16.08
31.56
42.38
49.80
55.39
60.04
63.34
63.58
58.48
46.72
28.59
6.16
-16.99
-36.48
-48.39
-48.72
-37.32
-16.30
10.88
40.24
67.75
89.82
103.73
108.00
102.67
88.82
69.17
47.13
26.12
8.63
-3.90
-11.24
-14.18
-14.19
-13.62
-13.60
-14.70
-16.88
-19.94
-23.57
-27.67
-32.36
-37.52
-42.56
-45.66
-44.48
-37.01
-23.13
-4.68
15.05
32.51
45.34
52.97
56.50
57.36
56.26
52.34
44.62
33.12
19.53
6.90
-1.82
-5.27
-4.60
0.19
6.58
12.06
15.41
16.90
17.75
19.04
20.96
22.73
23.18
21.02
16.13
9.47
2.65
-2.93
-6.52
-8.37
-9.39
-10.70
-13.44
-17.85
-23.31
-28.68
-32.77
-34.95
-35.33
-34.79
-34.60
-36.23
-40.55
-47.55
-56.36
-65.47
-73.06
-77.45
-77.34
-72.15
-62.30
-49.07
-34.34
-20.12
-7.96
1.49
8.56
14.11
18.88
22.97
25.66
25.91
23.12
17.83
11.99
8.49
10.28
19.04
34.37
53.51
72.09
85.65
91.37
89.22
81.79
72.99
66.05
62.12
59.94
57.00
51.19
42.10
31.28
21.17
13.78
9.69
8.15
7.84
7.82
7.95
8.52
9.72
11.07
11.48
9.60
4.49
-4.12
-15.64
-28.72
-41.72
-52.87
-60.74
-64.49
-64.11
-60.39
-54.67
-48.39
-42.68
-38.21
-35.34
-34.33
-35.45
-38.80
-44.06
-50.36
-56.52
-61.39
-64.36
-65.39
-64.77
-62.75
-59.23
-53.94
-46.73
-37.95
-28.39
-19.10
-10.87
-4.06
1.31
5.19
7.17
6.42
2.08
-6.26
-18.27
-32.92
-48.98
-65.41
-81.70
-97.67
-113.18
-127.73
-140.36
-149.93
-155.48
-156.65
-153.86
-148.18
-140.98
-133.66
-127.34
-122.86
-120.77
-121.47
-125.24
-132.01
-140.96
-150.18
-156.57
-156.26
-145.48
-121.63
-83.98
-34.08
24.50
86.84
147.53
201.31
243.55
270.89
281.76
277.14
260.33
236.30
210.39
186.98
168.64
156.11
148.85
145.61
144.70
143.40
137.72
123.31
97.25
59.95
15.81
-27.91
-63.89
-86.90
-96.48
-96.58
-92.95
-89.70
-87.55
-84.41
-77.59
-65.99
-49.59
-30.86
-13.73
-1.40
5.43
8.49
10.16
11.76
12.97
14.78
17.47
20.52
23.63
27.79
35.04
46.99
63.80
84.38
109.93
140.25
172.57
202.57
226.90
244.57
256.75
265.85
255.10
218.23
163.21
105.56
55.44
14.68
-18.43
-45.48
-67.33
-84.21
-93.29
-93.20
-85.60
-74.72
-65.40
-61.72
-65.92
-79.51
-101.26
-124.70
-142.68
-150.63
-147.99
-137.15
-121.53
-104.54
-88.59
-74.69
-61.59
-48.89
-37.90
-30.69
-29.62
-33.79
-40.24
-45.78
-48.24
-46.69
-42.09
-36.70
-32.91
-32.27
-35.16
-41.54
-51.22
-63.48
-76.59
-88.23
-96.39
-100.37
-101.22
-101.20
-102.59
-106.26
-110.53
-111.74
-105.88
-90.72
-67.04
-38.42
-9.44
16.09
36.46
52.25
65.33
77.56
89.89
101.92
112.25
119.14
121.11
117.55
109.06
97.37
84.85
73.76
65.52
60.44
57.79
56.41
55.26
53.65
51.30
47.99
43.36
37.07
29.02
19.71
10.31
2.31
-3.05
-5.38
-5.34
-4.41
-4.22
-5.93
-9.88
-15.60
-22.19
-28.73
-34.61
-39.62
-43.90
-47.70
-51.16
-54.09
-55.86
-55.45
-51.72
-43.79
-31.45
-15.39
2.83
21.15
37.51
50.42
59.23
64.11
65.71
64.82
62.02
57.73
52.33
46.31
40.26
34.66
29.58
24.68
19.41
13.53
7.36
1.84
-1.96
-3.37
-2.59
-0.60
1.24
1.83
0.88
-1.12
-3.08
-3.90
-2.79
0.61
6.24
13.78
22.72
32.32
41.51
48.93
53.06
52.74
47.66
38.66
27.62
16.86
8.26
2.68
-0.06
-0.67
0.21
2.49
6.51
12.65
20.80
30.20
39.59
47.69
53.55
56.74
57.30
55.69
52.75
49.65
47.72
48.00
50.79
55.39
60.25
63.50
63.55
59.55
51.48
40.02
26.28
11.62
-2.52
-14.73
-23.92
-29.59
-32.06
-32.40
-32.13
-32.68
-34.95
-39.03
-44.21
-49.43
-53.64
-56.17
-56.78
-55.38
-51.80
-45.60
-36.21
-23.31
-7.30
10.63
28.65
44.87
57.85
66.85
71.70
72.50
69.43
62.66
52.62
40.19
26.62
13.30
1.37
-8.55
-16.42
-22.53
-27.24
-30.65
-32.58
-32.71
-30.88
-27.29
-22.61
-17.85
-14.02
-11.74
-11.08
-11.62
-12.73
-14.01
-15.42
-17.16
-19.38
-21.83
-23.79
-24.35
-22.97
-19.81
-15.83
-12.47
-11.11
-12.56
-16.85
-23.31
-30.71
-37.70
-42.99
-45.49
-44.45
-39.51
-30.79
-18.92
-5.09
9.19
22.35
33.17
41.14
46.53
50.22
53.18
56.04
58.82
61.11
62.37
62.36
61.28
59.54
57.53
55.24
52.29
48.12
42.36
35.10
26.93
18.63
10.82
3.76
-2.79
-9.19
-15.68
-22.08
-27.80
-32.09
-34.44
-34.82
-33.74
-32.06
-30.69
-30.38
-31.52
-34.14
-38.00
-42.53
-46.90
-50.11
-51.24
-49.65
-45.22
-38.28
-29.53
-19.84
-9.99
-0.76
7.19
13.27
17.11
18.73
18.70
18.09
18.17
20.01
24.08
30.03
36.89
43.42
48.42
51.14
51.44
49.78
47.16
44.88
44.21
46.05
50.68
57.67
66.00
74.30
81.16
85.43
86.32
83.50
77.01
67.19
54.56
39.78
23.52
6.51
-10.51
-26.77
-41.47
-53.92
-63.62
-70.40
-74.41
-76.11
-76.10
-74.95
-73.04
-70.52
-67.37
-63.51
-58.99
-53.95
-48.62
-43.28
-38.13
-33.30
-28.84
-24.80
-21.18
-17.99
-15.25
-13.00
-11.25
-10.00
-9.23
-8.90
-9.00
-9.44
-10.11
-10.81
-11.20
-10.89
-9.57
-7.08
-3.58
0.43
4.16
6.71
7.16
4.94
0.12
-6.45
-13.22
-18.36
-20.30
-18.30
-12.76
-5.09
2.75
8.97
12.54
13.43
12.51
10.99
9.99
10.02
11.06
12.72
14.60
16.51
18.48
20.50
22.33
23.38
22.80
19.86
14.31
6.54
-2.39
-11.10
-18.35
-23.46
-26.42
-27.64
-27.55
-26.18
-23.28
-18.68
-12.77
-6.73
-2.14
-0.26
-1.41
-4.70
-8.45
-11.03
-11.51
-9.95
-7.11
-3.89
-0.79
2.13
5.02
7.88
10.27
11.39
10.37
6.79
0.98
-6.03
-12.87
-18.41
-22.08
-24.04
-24.85
-24.95
-24.32
-22.46
-18.66
-12.53
-4.32
5.21
15.13
24.83
34.25
43.58
52.78
61.18
67.43
69.82
67.08
58.77
45.50
28.63
9.90
-8.97
-26.23
-40.21
-49.54
-53.57
-52.99
-49.83
-47.00
-47.21
-51.81
-60.21
-70.20
-78.96
-84.22
-85.19
-82.52
-77.77
-72.56
-68.11
-65.04
-63.62
-63.82
-65.17
-66.59
-66.48
-63.16
-55.87
-45.36
-34.07
-25.13
-21.01
-22.15
-26.66
-30.93
-31.21
-25.15
-12.64
4.31
22.61
39.27
52.33
61.02
65.51
66.34
63.96
58.55
50.23
39.40
27.08
14.97
5.05
-0.97
-2.29
0.63
6.31
12.75
18.22
21.87
23.91
25.36
27.37
30.63
35.00
39.68
43.67
46.27
47.39
47.50
47.34
47.57
48.51
50.11
51.87
52.73
51.08
45.09
33.52
16.64
-3.13
-21.72
-34.85
-39.83
-36.79
-28.59
-19.31
-12.24
-8.50
-6.87
-4.99
-0.85
6.12
15.01
24.04
31.56
36.57
38.79
38.36
35.52
30.44
23.35
14.65
5.04
-4.49
-12.89
-19.30
-23.28
-24.97
-25.03
-24.50
-24.46
-25.68
-28.37
-32.13
-36.15
-39.60
-41.92
-43.09
-43.51
-43.69
-43.96
-44.22
-44.03
-42.90
-40.58
-37.26
-33.55
-30.14
-27.53
-25.69
-24.09
-21.89
-18.41
-13.42
-7.35
-1.13
4.20
7.90
9.72
9.90
8.82
6.75
3.76
-0.08
-4.42
-8.50
-11.28
-11.85
-9.84
-5.64
-0.26
5.01
9.11
11.55
12.49
12.59
12.64
13.25
14.60
16.46
18.38
19.92
20.96
21.60
22.02
22.18
21.62
19.63
15.60
9.34
1.12
-8.58
-19.43
-31.43
-44.48
-57.89
-69.84
-77.63
-78.58
-71.25
-56.28
-36.45
-15.71
2.21
15.05
22.47
25.69
26.63
26.94
27.62
28.84
30.33
31.60
32.22
32.01
31.15
30.22
30.10
31.73
35.75
42.14
50.24
58.80
66.53
72.58
76.73
79.35
80.93
81.65
81.09
78.44
72.73
63.19
49.43
31.61
10.60
-11.87
-33.23
-50.59
-61.57
-65.35
-63.22
-58.15
-53.57
-51.79
-52.98
-55.34
-56.19
-53.59
-47.19
-38.23
-28.58
-19.66
-11.94
-5.15
0.95
5.99
8.93
8.71
5.06
-1.10
-7.83
-13.08
-15.59
-15.39
-13.63
-11.93
-11.57
-13.05
-16.03
-19.73
-23.23
-25.73
-26.57
-25.31
-21.88
-16.69
-10.80
-5.60
-2.39
-1.78
-3.53
-6.68
-10.18
-13.36
-16.07
-18.40
-20.11
-20.42
-18.11
-12.18
-2.44
10.13
23.63
35.87
45.00
49.95
50.40
46.61
39.27
29.37
18.40
8.11
0.21
-4.19
-4.92
-2.81
0.77
4.46
7.33
9.05
9.62
9.14
7.70
5.34
2.26
-1.18
-4.53
-7.34
-9.34
-10.43
-10.58
-9.92
-8.73
-7.52
-6.99
-7.83
-10.39
-14.51
-19.44
-24.08
-27.35
-28.60
-27.69
-25.00
-21.12
-16.61
-11.78
-6.70
-1.29
4.50
10.61
16.81
22.66
27.52
30.58
30.95
28.05
21.96
13.74
5.32
-1.08
-3.78
-2.25
2.76
9.62
16.69
22.92
28.03
32.09
34.99
36.03
34.20
28.78
19.96
9.08
-1.86
-10.92
-17.01
-20.16
-21.35
-21.85
-22.60
-23.77
-24.77
-24.56
-22.06
-16.62
-8.29
2.09
13.04
22.81
29.93
33.60
33.87
31.57
27.92
24.06
20.67
17.91
15.55
13.25
10.78
8.06
5.16
2.12
-1.03
-4.23
-7.37
-10.31
-12.92
-15.20
-17.37
-19.70
-22.39
-25.38
-28.31
-30.71
-32.19
-32.67
-32.41
-31.82
-31.33
-31.26
-31.83
-33.13
-35.07
-37.24
-38.77
-38.44
-35.11
-28.17
-18.03
-6.13
5.53
15.05
21.35
24.44
25.22
25.01
24.84
25.19
25.95
26.68
26.99
26.71
25.83
24.32
21.98
18.61
14.23
9.39
5.05
2.11
0.84
0.62
0.21
-1.58
-5.21
-10.12
-15.08
-18.89
-20.96
-21.43
-20.80
-19.47
-17.48
-14.71
-11.23
-7.43
-3.97
-1.35
0.47
2.08
4.37
7.96
12.93
18.75
24.49
29.21
32.26
33.38
32.70
30.59
27.52
24.03
20.57
17.46
14.82
12.63
10.77
9.15
7.76
6.60
5.61
4.68
3.66
2.54
1.44
0.60
0.24
0.39
0.88
1.39
1.64
1.48
0.95
0.20
-0.57
-1.18
-1.47
-1.33
-0.61
0.87
3.34
7.05
12.15
18.46
25.41
32.11
37.63
41.36
43.28
43.88
43.87
43.74
43.45
42.44
39.88
35.02
27.49
17.39
5.35
-7.56
-19.93
-30.34
-37.57
-40.98
-40.63
-37.28
-32.14
-26.47
-21.16
-16.55
-12.43
-8.30
-3.73
1.29
6.27
10.36
12.81
13.38
12.59
11.56
11.62
13.79
18.40
25.13
33.13
41.34
48.78
54.67
58.52
60.22
59.96
58.17
55.29
51.60
47.18
41.98
36.14
30.10
24.53
19.96
16.47
13.44
9.75
4.22
-3.76
-14.00
-25.40
-36.32
-45.04
-50.23
-51.32
-48.66
-43.32
-36.81
-30.63
-25.75
-22.46
-20.44
-18.94
-17.21
-14.71
-11.18
-6.60
-1.17
4.76
10.71
16.15
20.72
24.32
27.16
29.55
31.68
33.42
34.45
34.36
32.94
30.19
26.27
21.25
15.03
7.38
-1.81
-12.41
-23.88
-35.41
-45.96
-54.49
-60.14
-62.47
-61.55
-57.99
-52.82
-47.11
-41.75
-37.26
-33.88
-31.73
-30.81
-31.07
-32.08
-32.97
-32.50
-29.46
-23.22
-14.09
-3.34
7.19
15.68
21.01
23.07
22.71
21.31
20.17
20.03
20.91
22.20
23.05
22.71
20.66
16.61
10.32
1.66
-9.20
-21.49
-33.69
-43.69
-49.50
-49.96
-45.33
-37.19
-27.85
-19.56
-13.74
-10.80
-10.41
-11.86
-14.47
-17.58
-20.49
-22.42
-22.68
-20.98
-17.58
-13.19
-8.52
-4.01
0.41
4.96
9.70
14.22
17.72
19.42
18.98
16.64
13.09
8.99
4.71
0.22
-4.64
-9.93
-15.40
-20.56
-24.85
-27.85
-29.39
-29.50
-28.44
-26.55
-24.30
-22.22
-20.82
-20.56
-21.73
-24.43
-28.50
-33.46
-38.42
-42.23
-43.64
-41.68
-36.13
-27.57
-17.38
-7.25
1.35
7.56
11.26
12.96
13.46
13.49
13.59
13.95
14.48
14.89
14.76
13.78
11.75
8.77
5.20
1.61
-1.38
-3.26
-3.70
-2.69
-0.47
2.45
5.35
7.41
7.93
6.54
3.33
-1.15
-6.08
-10.70
-14.57
-17.61
-20.01
-21.87
-23.01
-22.98
-21.30
-17.77
-12.72
-7.00
-1.61
2.67
5.61
7.47
8.83
10.16
11.60
12.93
13.82
14.02
13.53
12.43
10.88
8.85
6.26
3.11
-0.33
-3.52
-5.80
-6.66
-6.06
-4.38
-2.32
-0.63
0.15
-0.25
-1.87
-4.69
-8.65
-13.60
-19.09
-24.27
-28.01
-29.17
-27.07
-21.80
-14.30
-5.90
2.04
8.66
13.72
17.49
20.38
22.50
23.64
23.38
21.45
17.96
13.45
8.75
4.68
1.89
0.64
0.86
2.20
4.25
6.52
8.49
9.75
10.09
9.57
8.33
6.57
4.48
2.40
0.67
-0.42
-0.72
-0.09
1.29
2.89
4.19
4.87
5.60
7.36
11.03
16.81
24.58
33.67
43.04
51.76
59.10
65.33
70.74
75.42
78.99
81.76
84.28
87.05
90.42
94.15
98.28
102.19
104.72
104.30
100.61
94.10
85.32
74.69
57.89
34.10
6.40
-18.62
-40.43
-60.05
-78.07
-94.93
-108.38
-116.35
-117.47
-112.55
-103.47
-92.05
-78.02
-60.49
-39.20
-15.18
8.93
30.53
47.22
58.62
64.70
66.72
66.21
64.46
62.26
59.67
56.71
53.19
48.78
42.65
35.45
27.76
20.18
13.03
6.15
-0.78
-8.21
-16.34
-25.16
-33.94
-41.75
-47.76
-51.57
-53.39
-53.95
-54.13
-54.57
-55.49
-56.48
-56.94
-56.41
-54.75
-52.25
-49.26
-45.96
-42.31
-38.34
-34.46
-31.63
-31.00
-33.27
-38.26
-44.78
-51.07
-55.52
-57.31
-56.64
-54.42
-51.73
-49.29
-47.33
-45.66
-44.04
-42.32
-40.51
-38.61
-36.49
-34.01
-31.14
-28.13
-25.50
-23.92
-23.92
-25.67
-28.86
-32.82
-36.71
-39.79
-41.54
-41.73
-40.20
-36.77
-31.20
-23.37
-13.43
-2.01
9.85
20.92
30.15
36.95
41.24
43.31
43.56
42.32
39.79
36.20
31.95
27.55
23.58
20.42
18.17
16.56
15.26
13.92
12.45
10.94
9.56
8.44
7.56
6.73
5.69
4.22
2.20
-0.40
-3.50
-6.95
-10.52
-13.91
-16.74
-18.56
-18.94
-17.54
-14.32
-9.61
-4.04
1.57
6.45
10.10
12.33
13.23
13.07
12.16
10.81
9.27
7.69
6.20
4.85
3.67
2.71
2.06
1.83
2.06
2.65
3.38
4.03
4.46
4.61
4.47
3.96
2.89
1.11
-1.45
-4.65
-8.18
-11.65
-14.63
-16.57
-16.85
-14.82
-10.07
-2.76
6.37
16.01
24.75
31.46
35.65
37.40
37.19
35.51
32.74
29.10
24.83
20.34
16.20
13.01
11.12
10.48
10.58
10.74
10.31
9.04
7.14
5.16
3.64
2.84
2.65
2.62
2.29
1.30
-0.54
-3.28
-6.85
-11.08
-15.51
-19.42
-21.88
-22.08
-19.61
-14.63
-7.84
-0.26
7.12
13.61
18.81
22.64
25.12
26.26
26.08
24.64
22.13
18.99
15.79
13.18
11.65
11.38
12.11
13.27
14.19
14.33
13.52
12.01
10.31
8.99
8.36
8.36
8.57
8.34
7.07
4.43
0.53
-4.14
-8.76
-12.39
-14.18
-13.54
-10.33
-4.89
2.06
9.57
16.79
23.14
28.35
32.38
35.25
36.92
37.24
36.11
33.62
30.15
26.39
23.15
21.08
20.44
21.00
22.11
22.93
22.74
21.13
18.14
14.09
9.50
4.87
0.55
-3.26
-6.42
-8.81
-10.45
-11.45
-12.08
-12.66
-13.35
-13.99
-14.04
-12.70
-9.26
-3.42
4.51
13.61
22.62
30.25
35.55
38.04
37.86
35.59
32.12
28.32
24.87
22.00
19.54
17.04
14.00
10.12
5.47
0.49
-4.13
-7.69
-9.64
-9.72
-8.01
-4.92
-1.21
2.08
3.68
2.24
-3.24
-12.95
-25.88
-39.91
-52.28
-60.53
-63.33
-60.95
-55.01
-47.75
-41.09
-35.99
-32.36
-29.41
-26.27
-22.49
-18.16
-13.69
-9.55
-6.00
-3.05
-0.62
1.30
2.58
2.97
2.29
0.66
-1.45
-3.39
-4.57
-4.82
-4.45
-4.20
-4.83
-6.81
-10.09
-14.20
-18.43
-22.12
-24.77
-26.04
-25.74
-23.68
-19.86
-14.49
-8.08
-1.30
5.18
10.88
15.53
19.05
21.37
22.40
22.01
20.08
16.68
12.06
6.71
1.30
-3.51
-7.23
-9.60
-10.75
-11.06
-10.98
-10.88
-10.98
-11.41
-12.24
-13.68
-15.96
-19.23
-23.48
-28.46
-33.77
-38.95
-43.56
-47.21
-49.50
-50.06
-48.58
-44.94
-39.30
-32.08
-23.98
-15.79
-8.37
-2.45
1.43
3.13
2.88
1.28
-0.83
-2.65
-3.66
-3.72
-3.02
-1.99
-0.98
-0.22
0.23
0.46
0.61
0.79
1.11
1.56
2.05
2.41
2.48
2.18
1.62
1.19
1.46
3.11
6.63
12.20
19.57
28.11
37.00
45.39
52.58
58.11
61.72
63.30
62.83
60.35
56.04
50.38
44.14
38.20
33.35
29.92
27.72
26.23
24.93
23.65
22.58
21.99
21.86
21.62
20.31
16.93
10.88
2.15
-8.74
-21.02
-33.72
-45.70
-55.60
-61.98
-63.71
-60.46
-53.00
-43.02
-32.55
-23.20
-15.64
-9.59
-4.28
0.89
5.89
9.95
12.15
11.88
9.39
5.68
2.10
-0.17
-0.51
1.01
3.90
7.52
11.22
14.26
15.82
15.03
11.31
4.73
-3.86
-12.88
-20.39
-24.68
-24.69
-20.23
-12.01
-1.43
9.79
20.00
28.04
33.41
36.33
37.43
37.49
37.12
36.66
36.19
35.64
34.88
33.76
32.00
29.37
25.83
21.67
17.62
14.65
13.61
14.77
17.71
21.37
24.53
26.19
25.89
23.66
19.81
14.72
8.87
2.99
-1.79
-4.06
-2.53
3.48
13.58
26.40
39.98
52.43
62.38
69.21
72.97
74.02
72.87
70.03
65.96
61.06
55.68
50.04
44.35
38.79
33.55
28.69
24.14
19.61
14.71
9.23
3.24
-2.88
-8.65
-13.81
-18.46
-22.97
-27.76
-32.91
-37.99
-42.23
-44.68
-44.66
-41.95
-36.88
-30.23
-23.02
-16.16
-10.24
-5.35
-1.09
3.18
8.01
13.53
19.26
24.23
27.30
27.54
24.54
18.55
10.36
1.13
-7.89
-15.65
-21.52
-25.45
-27.98
-30.02
-32.44
-35.69
-39.58
-43.49
-46.69
-48.70
-49.44
-49.10
-47.79
-45.38
-41.52
-35.95
-28.68
-20.15
-11.02
-1.97
6.46
13.80
19.53
23.05
23.74
21.38
16.39
9.82
3.13
-2.37
-5.87
-7.28
-7.04
-5.84
-4.29
-2.93
-2.23
-2.70
-4.81
-8.91
-14.91
-22.36
-30.55
-38.80
-46.64
-53.78
-59.90
-64.50
-66.82
-66.12
-61.96
-54.48
-44.38
-32.81
-20.97
-9.92
-0.44
6.98
12.09
14.87
15.55
14.64
12.96
11.46
10.97
11.97
14.29
17.19
19.52
20.24
18.76
15.17
10.11
4.45
-1.02
-5.84
-9.83
-13.02
-15.39
-16.85
-17.15
-16.01
-13.20
-8.55
-2.06
6.15
15.79
26.48
37.77
49.13
59.97
69.56
77.10
81.81
83.24
81.41
76.92
70.81
64.36
58.66
54.40
51.63
49.85
48.19
45.74
41.81
36.23
29.48
22.69
17.30
14.52
14.70
16.89
18.91
17.97
11.82
-0.20
-16.67
-34.54
-50.29
-61.37
-66.97
-67.92
-65.76
-61.71
-56.12
-48.69
-39.19
-28.05
-16.38
-5.46
3.87
11.52
17.96
23.63
28.50
32.12
33.99
34.11
33.24
32.65
33.65
37.07
43.02
51.04
60.50
70.75
81.09
90.46
97.26
99.48
95.34
84.20
67.25
47.45
28.64
14.21
5.93
3.66
5.97
11.23
18.56
27.92
39.53
53.02
66.96
79.21
87.78
91.83
91.98
89.97
87.78
86.61
86.43
86.15
84.38
80.14
73.41
65.11
56.61
49.12
43.24
38.77
35.02
31.19
26.81
21.84
16.60
11.48
6.77
2.55
-1.38
-5.34
-9.66
-14.48
-19.61
-24.51
-28.42
-30.67
-30.93
-29.27
-26.08
-21.91
-17.34
-13.12
-10.20
-9.81
-13.15
-21.11
-34.04
-51.65
-73.14
-97.35
-122.64
-147.11
-168.87
-186.56
-199.85
-209.44
-216.55
-222.18
-226.71
-230.05
-232.25
-233.91
-235.93
-238.72
-241.56
-242.62
-239.92
-232.47
-220.80
-206.41
-190.50
-173.09
-153.00
-129.00
-100.99
-70.67
-40.95
-14.71
6.26
21.69
32.38
39.35
43.28
44.42
42.90
39.06
33.50
26.88
19.71
12.25
4.60
-3.00
-10.10
-16.04
-20.17
-22.20
-22.42
-21.60
-20.69
-20.36
-20.67
-21.24
-21.53
-21.42
-21.32
-22.13
-24.59
-28.89
-34.38
-39.67
-43.18
-43.54
-39.97
-32.35
-21.16
-7.44
7.42
21.81
34.32
44.03
50.81
55.34
58.69
61.88
65.40
69.03
71.86
72.69
70.31
63.95
53.56
40.03
25.09
10.93
-0.38
-7.60
-10.65
-10.61
-9.16
-7.90
-7.82
-9.16
-11.63
-14.78
-18.27
-21.79
-24.97
-27.32
-28.29
-27.49
-24.89
-20.95
-16.43
-12.23
-9.01
-7.01
-5.94
-5.09
-3.70
-1.26
2.07
5.55
8.10
8.88
7.63
4.82
1.36
-1.88
-4.37
-6.05
-7.10
-7.77
-8.21
-8.52
-8.80
-9.20
-9.93
-11.12
-12.79
-14.83
-16.94
-18.50
-18.62
-16.25
-10.59
-1.51
10.22
23.15
35.60
46.16
53.89
58.22
58.88
55.90
49.91
42.33
35.14
30.30
28.87
30.60
34.03
37.36
39.24
39.32
37.98
35.76
32.64
27.90
20.46
9.62
-4.37
-20.14
-35.68
-48.87
-58.20
-63.07
-63.60
-60.32
-53.84
-44.68
-33.31
-20.35
-6.60
6.91
19.06
28.89
35.81
39.79
41.40
41.69
41.78
42.40
43.47
44.16
43.47
40.96
37.10
33.31
31.22
31.97
35.78
41.92
49.05
55.63
60.27
61.99
60.38
55.74
48.99
41.46
34.41
28.59
24.12
20.58
17.39
14.05
10.32
6.28
2.35
-0.60
-1.32
1.47
8.46
19.25
32.23
44.95
54.98
60.63
61.37
57.59
50.13
39.73
26.87
12.08
-3.70
-18.80
-31.11
-38.64
-40.33
-36.57
-29.09
-20.44
-13.01
-8.30
-6.64
-7.37
-9.43
-11.97
-14.67
-17.70
-21.36
-25.74
-30.50
-34.82
-37.76
-38.58
-36.98
-33.25
-28.00
-21.90
-15.40
-8.79
-2.30
3.66
8.51
11.61
12.60
11.63
9.32
6.58
4.23
2.78
2.30
2.52
2.97
3.21
2.97
2.22
1.23
0.41
0.22
0.94
2.51
4.46
6.03
6.43
5.12
1.95
-2.72
-8.21
-13.58
-17.84
-20.09
-19.70
-16.43
-10.51
-2.52
6.70
16.37
25.80
34.48
41.97
47.82
51.50
52.54
50.83
46.72
41.08
35.04
29.70
25.72
23.25
21.97
21.34
20.91
20.46
20.01
19.71
19.73
20.07
20.65
21.33
21.88
22.07
21.57
20.07
17.36
13.55
9.20
5.24
2.75
2.63
5.28
10.45
17.39
25.08
32.51
38.89
43.69
46.59
47.42
46.16
43.00
38.36
32.89
27.25
21.99
17.43
13.60
10.41
7.74
5.50
3.67
2.17
0.82
-0.68
-2.66
-5.33
-8.76
-12.84
-17.41
-22.30
-27.39
-32.57
-37.61
-42.19
-45.88
-48.31
-49.23
-48.58
-46.42
-42.88
-38.07
-32.17
-25.50
-18.55
-11.94
-6.26
-1.84
1.30
3.42
4.90
6.08
7.09
7.98
8.80
9.70
10.91
12.60
14.74
17.04
19.02
20.21
20.40
19.75
18.75
18.05
18.18
19.31
21.23
23.43
25.31
26.44
26.62
25.85
24.15
21.55
18.08
13.93
9.48
5.29
1.84
-0.65
-2.25
-3.24
-3.86
-4.09
-3.72
-2.53
-0.53
1.87
4.02
5.21
5.02
3.46
0.90
-2.09
-4.94
-7.31
-9.02
-10.10
-10.70
-11.00
-11.20
-11.49
-12.02
-12.85
-13.91
-15.05
-16.10
-16.97
-17.70
-18.41
-19.30
-20.49
-21.95
-23.52
-24.95
-25.95
-26.28
-25.81
-24.47
-22.32
-19.49
-16.20
-12.75
-9.37
-6.26
-3.47
-0.99
1.16
2.86
3.97
4.34
4.00
3.20
2.31
1.71
1.58
1.83
2.21
2.39
2.16
1.50
0.51
-0.64
-1.77
-2.76
-3.55
-4.14
-4.57
-4.90
-5.22
-5.58
-5.97
-6.21
-6.04
-5.12
-3.13
0.08
4.45
9.64
15.18
20.60
25.64
30.28
34.69
39.02
43.21
46.94
49.81
51.59
52.41
52.79
53.38
54.66
56.68
59.11
61.43
63.33
64.81
66.22
68.02
70.53
73.87
78.01
82.97
88.94
96.16
104.65
114.02
123.51
132.33
140.11
147.19
154.50
163.01
173.22
184.87
197.12
209.01
219.91
229.54
237.61
243.51
246.07
244.03
236.69
224.36
208.47
191.07
174.03
158.39
144.21
130.80
117.30
103.22
88.61
73.93
59.71
46.14
32.91
19.37
4.78
-11.28
-28.66
-46.69
-64.46
-81.18
-96.55
-110.81
-124.69
-139.14
-155.20
-173.90
-195.99
-221.56
-249.51
-277.44
-301.93
-319.62
-328.40
-328.28
-321.41
-311.10
-300.42
-291.16
-283.52
-276.73
-270.09
-263.63
-258.04
-254.06
-251.70
-249.93
-247.07
-241.65
-233.09
-221.89
-209.26
-196.31
-183.52
-170.69
-157.32
-143.02
-127.72
-111.42
-93.85
-74.40
-52.33
-27.48
-0.61
26.45
51.24
71.41
85.34
92.39
92.74
86.96
75.60
59.10
37.97
13.23
-13.29
-38.97
-60.92
-76.71
-85.00
-85.88
-80.60
-71.10
-59.45
-47.49
-36.74
-28.36
-23.11
-21.13
-21.92
-24.34
-26.98
-28.51
-27.97
-24.90
-19.34
-11.76
-2.98
5.96
14.16
21.17
27.30
33.43
40.53
49.08
58.62
67.87
75.30
79.83
81.32
80.42
78.08
74.90
70.87
65.54
58.50
49.86
40.23
30.52
21.39
13.02
5.27
-2.04
-8.63
-13.78
-16.61
-16.57
-13.89
-9.68
-5.51
-2.77
-2.11
-3.22
-5.11
-6.62
-6.89
-5.73
-3.57
-1.11
0.95
2.20
2.62
2.56
2.66
3.79
6.78
12.10
19.44
27.52
34.42
38.29
38.27
34.96
30.29
26.59
25.63
27.85
32.43
37.82
42.67
46.32
48.87
50.98
53.37
56.66
61.39
68.00
76.87
88.03
100.92
114.27
126.30
135.22
139.85
140.00
136.42
130.24
122.22
112.32
99.83
84.10
65.32
44.97
25.54
9.69
-0.51
-4.10
-1.05
8.17
22.90
42.21
64.53
87.43
107.92
123.22
131.60
132.94
128.45
119.97
109.23
97.37
84.92
72.22
59.59
47.48
36.27
26.01
16.32
6.50
-4.24
-16.38
-29.96
-44.55
-59.52
-74.29
-88.53
-102.31
-115.92
-129.76
-144.01
-158.47
-172.48
-185.08
-195.20
-201.96
-204.92
-204.30
-200.96
-196.27
-191.60
-188.01
-185.87
-184.79
-183.88
-182.12
-178.77
-173.58
-166.69
-158.40
-148.85
-137.94
-125.52
-111.64
-96.79
-81.76
-67.42
-54.34
-42.62
-31.97
-22.30
-13.61
-6.03
0.31
5.21
8.61
10.64
11.63
11.88
11.34
9.90
7.54
4.29
0.18
-4.70
-9.88
-14.40
-16.98
-17.04
-14.22
-8.49
-0.42
8.68
17.17
23.70
27.70
29.29
27.13
20.84
11.51
1.13
-8.62
-16.96
-23.52
-28.27
-31.37
-36.96
-47.48
-61.91
-77.00
-90.08
-100.32
-107.83
-113.16
-116.83
-125.45
-142.52
-166.03
-190.48
-211.46
-227.56
-238.96
-246.38
-250.71
-260.95
-281.93
-310.55
-338.25
-357.09
-363.42
-356.78
-339.42
-269.64
-139.75
20.12
164.31
265.97
323.80
348.83
355.58
354.92
359.07
367.16
377.10
389.57
406.14
426.25
441.04
441.65
427.19
404.72
377.26
347.79
320.19
297.09
277.68
258.60
235.96
209.05
179.94
147.92
113.74
81.11
53.80
40.35
41.45
53.61
72.55
94.72
115.31
128.34
133.88
133.34
128.79
121.17
111.83
102.18
92.02
82.18
71.21
58.31
43.05
25.66
5.93
-15.62
-37.65
-58.54
-76.66
-91.01
-100.43
-104.52
-103.47
-98.50
-90.73
-80.76
-68.97
-55.86
-42.85
-31.59
-23.90
-20.83
-22.43
-27.39
-33.58
-39.13
-43.14
-46.16
-49.44
-54.29
-61.10
-69.16
-76.69
-81.62
-82.37
-78.56
-71.22
-62.24
-53.73
-47.39
-44.17
-44.41
-48.03
-54.81
-64.12
-74.85
-85.19
-93.06
-96.76
-95.58
-90.19
-82.27
-73.91
-66.91
-62.17
-59.76
-59.09
-59.52
-60.60
-62.28
-64.66
-67.81
-71.50
-75.30
-78.72
-81.50
-83.72
-85.66
-87.68
-90.10
-93.15
-97.08
-102.09
-108.08
-114.22
-118.77
-119.23
-113.30
-100.01
-80.43
-57.47
-34.76
-15.31
-0.34
10.69
19.61
28.24
37.49
47.23
56.73
65.35
72.77
79.13
84.57
89.60
94.41
98.70
101.97
103.79
103.91
101.77
96.82
88.25
76.32
61.61
44.49
25.29
4.69
-16.29
-36.89
-56.31
-74.49
-90.24
-102.32
-110.12
-112.86
-109.26
-97.78
-78.21
-51.36
-19.91
14.60
51.02
87.96
124.56
160.47
195.41
227.99
257.03
268.50
253.14
214.37
165.86
121.32
88.22
72.11
68.89
74.48
84.02
94.23
102.59
102.66
90.80
66.64
32.98
-4.99
-40.99
-71.43
-94.44
-110.29
-120.96
-127.63
-130.23
-128.07
-119.30
-102.37
-79.41
-55.60
-37.21
-33.75
-49.64
-77.60
-106.14
-123.83
-121.44
-96.22
-52.50
0.78
53.76
99.65
135.37
150.16
139.02
107.86
68.78
31.09
-1.22
-27.45
-47.39
-61.63
-72.33
-79.39
-84.58
-89.95
-97.19
-106.29
-115.68
-123.00
-126.63
-126.50
-121.95
-114.06
-104.07
-93.19
-81.73
-69.05
-54.22
-37.00
-18.29
0.99
19.32
34.97
46.16
51.97
52.65
49.46
44.04
37.84
32.33
28.26
25.87
24.73
24.25
23.96
23.45
22.33
20.24
17.09
12.91
8.03
2.87
-2.02
-6.21
-9.45
-11.97
-14.34
-17.36
-21.83
-28.13
-36.00
-44.42
-51.75
-56.06
-55.66
-49.61
-38.01
-22.13
-3.96
14.17
30.24
42.92
51.71
56.81
58.81
58.44
56.40
53.36
49.97
46.81
44.34
42.79
42.07
41.86
41.77
41.43
40.64
39.28
37.34
34.84
31.83
28.41
24.68
20.68
16.44
11.89
6.86
1.15
-5.34
-12.43
-19.46
-25.36
-28.86
-28.88
-24.91
-17.24
-6.80
5.11
17.19
28.41
37.94
45.12
49.47
50.79
49.24
45.50
40.56
35.45
31.02
27.72
25.63
24.58
24.30
24.51
24.92
25.25
25.24
24.66
23.42
21.54
19.11
16.21
12.95
9.33
5.40
1.14
-3.48
-8.58
-14.20
-20.14
-25.82
-30.19
-32.04
-30.35
-24.72
-15.63
-4.27
7.74
18.89
28.09
34.77
38.87
40.63
40.47
38.91
36.54
33.94
31.59
29.80
28.68
28.18
28.15
28.41
28.81
29.22
29.45
29.27
28.46
26.82
24.31
21.05
17.31
13.33
9.35
5.45
1.63
-2.15
-6.00
-9.93
-13.81
-17.32
-19.91
-20.88
-19.55
-15.54
-8.91
-0.29
9.32
18.75
26.98
33.34
37.59
39.85
40.44
39.76
38.19
36.10
33.84
31.75
30.13
29.10
28.58
28.34
28.07
27.52
26.62
25.50
24.36
23.35
22.42
21.35
19.77
17.43
14.27
10.53
6.66
3.08
-0.04
-2.84
-5.69
-8.90
-12.41
-15.68
-17.78
-17.76
-15.06
-9.76
-2.61
5.30
12.86
19.24
24.02
27.09
28.47
28.29
26.75
24.15
20.93
17.63
14.74
12.60
11.32
10.81
10.85
11.18
11.56
11.84
11.87
11.60
11.00
10.14
9.13
8.05
6.95
5.76
4.36
2.58
0.31
-2.46
-5.61
-8.89
-11.92
-14.22
-15.29
-14.69
-12.21
-7.97
-2.47
3.50
9.01
13.30
15.91
16.85
16.46
15.26
13.66
11.90
10.07
8.11
6.10
4.17
2.54
1.31
0.46
-0.19
-0.83
-1.60
-2.55
-3.68
-5.11
-6.95
-9.36
-12.31
-15.58
-18.82
-21.69
-24.10
-26.20
-28.30
-30.69
-33.43
-36.30
-38.77
-40.24
-40.17
-38.32
-34.84
-30.25
-25.28
-20.67
-16.94
-14.27
-12.49
-11.20
-9.94
-8.33
-6.22
-3.66
-0.91
1.76
4.13
6.12
7.80
9.33
10.83
12.29
13.55
14.31
14.28
13.32
11.49
9.03
6.29
3.59
1.09
-1.22
-3.55
-6.16
-9.22
-12.61
-15.92
-18.48
-19.61
-18.89
-16.37
-12.45
-7.84
-3.27
0.72
3.85
6.03
7.27
7.63
7.19
6.12
4.68
3.19
1.97
1.23
1.00
1.09
1.19
0.95
0.17
-1.21
-2.99
-4.89
-6.62
-8.03
-9.13
-9.95
-10.53
-10.79
-10.62
-9.99
-9.01
-8.03
-7.44
-7.59
-8.51
-9.98
-11.45
-12.27
-11.87
-10.02
-6.77
-2.54
2.10
6.56
10.36
13.25
15.16
16.18
16.43
16.07
15.26
14.20
13.09
12.10
11.34
10.81
10.38
9.92
9.29
8.45
7.42
6.31
5.19
4.06
2.83
1.33
-0.53
-2.80
-5.31
-7.81
-10.01
-11.72
-12.96
-13.90
-14.81
-15.83
-16.98
-18.03
-18.60
-18.24
-16.65
-13.72
-9.61
-4.77
0.23
4.77
8.36
10.80
12.10
12.50
12.33
11.90
11.39
10.89
10.44
10.00
9.61
9.25
8.94
8.65
8.31
7.82
7.07
5.99
4.55
2.83
0.94
-0.91
-2.54
-3.83
-4.75
-5.41
-5.99
-6.67
-7.58
-8.77
-10.23
-11.88
-13.63
-15.23
-16.40
-16.79
-16.16
-14.49
-12.00
-9.15
-6.38
-4.04
-2.29
-1.11
-0.42
-0.16
-0.24
-0.59
-1.11
-1.74
-2.40
-3.06
-3.67
-4.15
-4.46
-4.61
-4.72
-4.98
-5.49
-6.24
-7.02
-7.54
-7.60
-7.15
-6.34
-5.39
-4.51
-3.80
-3.29
-3.01
-3.01
-3.31
-3.83
-4.36
-4.55
-4.06
-2.63
-0.19
3.12
7.00
11.03
14.80
18.00
20.43
22.06
23.00
23.37
23.33
22.98
22.41
21.72
21.10
20.77
20.99
21.90
23.47
25.43
27.33
28.64
28.96
28.19
26.61
24.74
23.18
22.22
21.75
21.31
20.23
18.02
14.46
9.67
3.98
-2.10
-8.01
-13.11
-16.81
-18.72
-18.75
-17.27
-14.97
-12.62
-10.83
-9.85
-9.61
-9.87
-10.34
-10.84
-11.29
-11.68
-11.98
-12.15
-12.15
-11.94
-11.49
-10.88
-10.18
-9.55
-9.09
-8.87
-8.83
-8.89
-8.94
-8.99
-9.09
-9.36
-9.91
-10.77
-11.93
-13.34
-14.96
-16.73
-18.54
-20.18
-21.37
-21.81
-21.27
-19.77
-17.49
-14.82
-12.11
-9.67
-7.62
-5.98
-4.67
-3.62
-2.77
-2.05
-1.37
-0.60
0.35
1.45
2.53
3.34
3.66
3.39
2.56
1.30
-0.24
-2.02
-4.03
-6.27
-8.67
-11.05
-13.26
-15.16
-16.73
-18.05
-19.17
-20.15
-21.04
-21.84
-22.53
-23.02
-23.16
-22.76
-21.68
-19.95
-17.73
-15.29
-12.79
-10.28
-7.60
-4.58
-1.15
2.52
6.11
9.30
11.91
13.94
15.52
16.73
17.49
17.58
16.75
14.89
12.17
8.93
5.62
2.61
0.09
-1.93
-3.50
-4.66
-5.38
-5.60
-5.35
-4.79
-4.26
-4.17
-4.80
-6.15
-7.85
-9.31
-9.88
-9.18
-7.18
-4.19
-0.74
2.68
5.73
8.20
9.99
11.02
11.20
10.55
9.23
7.54
5.81
4.24
2.87
1.56
0.18
-1.31
-2.80
-4.08
-4.93
-5.30
-5.29
-5.14
-5.15
-5.58
-6.51
-7.86
-9.42
-10.97
-12.35
-13.52
-14.55
-15.54
-16.49
-17.32
-17.78
-17.63
-16.65
-14.74
-11.95
-8.47
-4.58
-0.63
3.02
6.12
8.52
10.20
11.27
11.88
12.17
12.32
12.52
12.92
13.61
14.51
15.41
16.01
16.09
15.64
14.82
13.94
13.25
12.84
12.60
12.34
11.87
11.11
10.04
8.67
6.99
5.03
2.83
0.47
-1.93
-4.28
-6.49
-8.48
-10.09
-11.12
-11.32
-10.50
-8.67
-6.06
-3.03
0.08
3.02
5.70
8.08
10.12
11.65
12.52
12.65
12.06
10.97
9.62
8.24
6.90
5.53
4.02
2.29
0.38
-1.58
-3.42
-5.00
-6.26
-7.13
-7.57
-7.52
-6.98
-5.97
-4.73
-3.55
-2.79
-2.72
-3.43
-4.88
-6.75
-8.60
-9.89
-10.15
-9.06
-6.60
-3.02
1.19
5.50
9.45
12.71
15.14
16.62
17.12
16.63
15.23
13.14
10.68
8.21
5.98
4.14
2.72
1.64
0.80
0.08
-0.65
-1.48
-2.38
-3.29
-4.09
-4.67
-5.09
-5.52
-6.23
-7.44
-9.21
-11.33
-13.38
-14.85
-15.33
-14.60
-12.71
-9.90
-6.54
-3.01
0.38
3.43
6.01
8.00
9.29
9.78
9.46
8.50
7.19
5.89
4.89
4.29
3.91
3.48
2.72
1.50
-0.02
-1.51
-2.56
-2.92
-2.57
-1.76
-0.91
-0.43
-0.63
-1.58
-3.13
-5.04
-7.04
-8.88
-10.33
-11.19
-11.25
-10.35
-8.48
-5.80
-2.66
0.46
3.15
5.19
6.60
7.59
8.36
9.00
9.39
9.29
8.54
7.17
5.43
3.67
2.19
1.06
0.17
-0.66
-1.55
-2.44
-3.18
-3.69
-4.03
-4.38
-5.02
-6.06
-7.47
-9.06
-10.61
-12.01
-13.25
-14.40
-15.47
-16.33
-16.69
-16.23
-14.70
-12.06
-8.51
-4.46
-0.41
3.19
6.01
7.94
9.00
9.28
8.95
8.14
7.07
5.99
5.12
4.60
4.43
4.47
4.50
4.33
3.83
2.99
1.91
0.74
-0.34
-1.15
-1.60
-1.69
-1.60
-1.59
-1.94
-2.80
-4.13
-5.66
-7.03
-7.84
-7.79
-6.76
-4.78
-2.02
1.24
4.65
7.83
10.41
12.12
12.88
12.74
11.95
10.80
9.55
8.34
7.21
6.13
5.07
4.05
3.14
2.31
1.48
0.48
-0.86
-2.60
-4.64
-6.75
-8.63
-10.05
-10.96
-11.45
-11.77
-12.14
-12.74
-13.59
-14.56
-15.41
-15.81
-15.46
-14.13
-11.79
-8.59
-4.88
-1.10
2.35
5.23
7.44
9.04
10.08
10.62
10.63
10.09
9.07
7.72
6.28
4.98
4.01
3.36
2.95
2.62
2.24
1.81
1.37
0.99
0.64
0.23
-0.43
-1.48
-2.94
-4.64
-6.35
-7.82
-8.98
-9.90
-10.80
-11.83
-12.95
-13.93
-14.35
-13.85
-12.15
-9.28
-5.54
-1.38
2.66
6.16
8.82
10.57
11.43
11.55
11.03
10.04
8.74
7.32
6.03
5.06
4.51
4.28
4.16
3.83
3.05
1.83
0.38
-0.85
-1.44
-1.12
0.01
1.56
2.95
3.71
3.66
2.91
1.85
0.83
0.08
-0.40
-0.73
-1.02
-1.30
-1.47
-1.43
-1.13
-0.65
-0.07
0.60
1.46
2.72
4.50
6.76
9.24
11.57
13.34
14.32
14.51
14.05
13.21
12.14
11.01
9.90
8.96
8.34
8.26
8.82
10.00
11.58
13.22
14.59
15.40
15.54
15.10
14.33
13.51
12.90
12.65
12.77
13.22
13.84
14.55
15.33
16.24
17.35
18.61
19.87
20.95
21.77
22.49
23.54
25.40
28.34
32.17
36.20
39.50
41.36
41.57
40.45
38.52
36.09
32.97
28.57
22.25
13.67
2.95
-9.38
-22.61
-35.94
-48.53
-59.54
-68.16
-73.88
-76.69
-77.18
-76.32
-75.08
-74.05
-73.26
-72.31
-70.70
-68.12
-64.57
-60.30
-55.67
-51.04
-46.66
-42.75
-39.55
-37.22
-35.90
-35.53
-35.80
-36.17
-35.94
-34.42
-31.20
-26.30
-20.16
-13.59
-7.46
-2.44
1.14
3.34
4.48
4.99
5.20
5.33
5.41
5.36
5.11
4.61
3.97
3.30
2.77
2.43
2.30
2.31
2.42
2.68
3.13
3.86
4.82
5.81
6.56
6.85
6.60
5.93
5.11
4.42
4.05
4.03
4.19
4.27
4.05
3.41
2.43
1.35
0.44
-0.05
0.03
0.73
1.99
3.63
5.41
7.01
8.21
8.85
8.96
8.71
8.30
7.92
7.69
7.64
7.77
8.10
8.57
9.12
9.68
10.17
10.53
10.70
10.61
10.16
9.29
7.99
6.38
4.71
3.25
2.19
1.59
1.35
1.26
1.16
0.96
0.62
0.19
-0.33
-0.89
-1.44
-1.82
-1.83
-1.26
0.03
2.01
4.51
7.24
9.92
12.31
14.26
15.67
16.53
16.85
16.69
16.22
15.56
14.87
14.24
13.73
13.38
13.24
13.35
13.68
14.17
14.62
14.85
14.66
13.99
12.90
11.55
10.11
8.70
7.36
6.00
4.54
2.94
1.19
-0.62
-2.41
-4.08
-5.59
-6.88
-7.87
-8.41
-8.35
-7.60
-6.13
-4.10
-1.72
0.69
2.85
4.53
5.60
5.99
5.75
5.00
3.92
2.70
1.51
0.47
-0.35
-0.94
-1.31
-1.53
-1.65
-1.72
-1.78
-1.82
-1.82
-1.79
-1.78
-1.80
-1.88
-2.01
-2.20
-2.50
-3.04
-3.95
-5.30
-6.97
-8.68
-9.99
-10.50
-10.01
-8.48
-6.16
-3.42
-0.61
1.96
4.10
5.67
6.65
6.99
6.73
5.94
4.76
3.42
2.17
1.22
0.65
0.43
0.41
0.39
0.17
-0.39
-1.35
-2.69
-4.29
-5.98
-7.59
-8.96
-10.02
-10.84
-11.60
-12.50
-13.68
-15.07
-16.39
-17.29
-17.42
-16.66
-15.05
-12.82
-10.20
-7.40
-4.53
-1.73
0.79
2.76
3.93
4.19
3.61
2.38
0.75
-1.07
-2.97
-4.87
-6.67
-8.16
-9.03
-9.07
-8.19
-6.55
-4.51
-2.53
-0.96
0.06
0.57
0.70
0.49
-0.16
-1.42
-3.40
-5.97
-8.67
-10.86
-11.89
-11.36
-9.24
-5.88
-1.82
2.43
6.46
10.04
12.99
15.12
16.24
16.22
15.05
12.95
10.36
7.79
5.67
4.24
3.46
3.09
2.79
2.29
1.46
0.38
-0.78
-1.85
-2.73
-3.44
-4.07
-4.70
-5.45
-6.43
-7.78
-9.60
-11.84
-14.26
-16.36
-17.56
-17.42
-15.75
-12.71
-8.69
-4.17
0.38
4.65
8.43
11.61
14.15
16.04
17.27
17.85
17.80
17.25
16.38
15.45
14.68
14.15
13.77
13.34
12.71
11.86
10.87
9.84
8.84
7.78
6.56
5.12
3.50
1.84
0.27
-1.15
-2.42
-3.57
-4.59
-5.34
-5.60
-5.11
-3.67
-1.20
2.17
6.05
9.91
13.20
15.53
16.74
16.89
16.11
14.48
11.98
8.62
4.60
0.40
-3.29
-5.87
-7.06
-7.04
-6.37
-5.72
-5.54
-5.94
-6.68
-7.44
-8.00
-8.38
-8.77
-9.40
-10.44
-11.94
-13.82
-15.90
-17.92
-19.49
-20.13
-19.32
-16.72
-12.34
-6.55
-0.03
6.40
12.05
16.41
19.16
20.19
19.53
17.42
14.28
10.65
7.09
4.05
1.77
0.27
-0.53
-0.82
-0.82
-0.74
-0.76
-0.99
-1.39
-1.80
-2.03
-1.92
-1.40
-0.55
0.48
1.54
2.47
3.13
3.33
2.91
1.76
-0.04
-2.22
-4.29
-5.70
-5.96
-4.77
-2.07
1.99
7.08
12.78
18.65
24.19
28.85
32.07
33.43
32.78
30.42
27.06
23.66
21.08
19.83
19.84
20.62
21.45
21.80
21.48
20.66
19.70
18.90
18.37
18.02
17.69
17.28
16.84
16.48
16.39
16.63
17.15
17.84
18.52
19.07
19.40
19.46
19.30
19.10
19.19
20.02
21.96
25.12
29.20
33.52
37.17
39.29
39.28
36.94
32.39
26.06
18.50
10.34
2.14
-5.65
-12.83
-19.50
-25.97
-32.58
-39.51
-46.61
-53.46
-59.47
-64.14
-67.20
-68.69
-68.89
-68.25
-67.26
-66.39
-65.96
-66.16
-66.89
-67.82
-68.41
-68.06
-66.27
-62.83
-57.85
-51.67
-44.75
-37.52
-30.27
-23.22
-16.56
-10.49
-5.28
-1.16
1.74
3.52
4.46
4.92
5.19
5.44
5.68
5.92
6.21
6.71
7.63
9.06
10.91
12.91
14.71
16.01
16.73
16.92
16.71
16.25
15.57
14.64
13.41
11.86
10.06
8.19
6.45
5.00
3.88
3.03
2.23
1.32
0.18
-1.10
-2.32
-3.21
-3.51
-3.11
-2.01
-0.31
1.91
4.51
7.44
10.51
13.41
15.70
16.84
16.42
14.31
10.78
6.45
2.15
-1.40
-3.79
-4.97
-5.20
-4.84
-4.21
-3.48
-2.76
-2.10
-1.63
-1.50
-1.80
-2.50
-3.45
-4.38
-5.05
-5.34
-5.22
-4.76
-4.14
-3.56
-3.30
-3.59
-4.52
-5.97
-7.57
-8.79
-9.07
-8.09
-5.79
-2.45
1.51
5.58
9.29
12.30
14.42
15.63
16.04
15.84
15.20
14.30
13.26
12.20
11.26
10.52
10.03
9.67
9.34
8.90
8.32
7.67
7.01
6.35
5.60
4.63
3.37
1.93
0.49
-0.73
-1.66
-2.41
-3.25
-4.43
-6.00
-7.80
-9.49
-10.77
-11.56
-11.97
-12.28
-12.62
-12.93
-12.90
-12.13
-10.43
-7.89
-4.87
-1.80
0.98
3.31
5.21
6.71
7.82
8.47
8.64
8.39
7.91
7.43
7.15
7.17
7.45
7.87
8.24
8.38
8.17
7.59
6.69
5.63
4.58
3.66
2.90
2.28
1.74
1.17
0.52
-0.27
-1.25
-2.43
-3.77
-5.19
-6.53
-7.68
-8.53
-9.02
-9.05
-8.50
-7.18
-5.03
-2.08
1.39
4.98
8.24
10.84
12.55
13.35
13.29
12.51
11.21
9.61
7.95
6.35
4.91
3.62
2.44
1.36
0.37
-0.50
-1.30
-2.03
-2.70
-3.31
-3.83
-4.29
-4.76
-5.31
-6.03
-6.94
-8.04
-9.34
-10.88
-12.67
-14.64
-16.56
-18.08
-18.79
-18.39
-16.75
-14.03
-10.63
-7.03
-3.71
-0.93
1.24
2.90
4.14
5.00
5.39
5.19
4.42
3.22
1.91
0.80
0.04
-0.40
-0.67
-0.96
-1.32
-1.74
-2.18
-2.64
-3.17
-3.84
-4.66
-5.50
-6.10
-6.15
-5.40
-3.79
-1.53
0.96
3.13
4.49
4.81
4.16
2.92
1.65
0.85
0.88
1.85
3.62
5.92
8.45
11.02
13.54
15.99
18.31
20.34
21.79
22.41
22.05
20.76
18.75
16.26
13.48
10.55
7.63
4.90
2.55
0.68
-0.81
-2.21
-3.84
-5.90
-8.32
-10.82
-13.08
-14.98
-16.58
-18.14
-19.88
-21.85
-23.92
-25.83
-27.31
-28.12
-28.03
-26.88
-24.53
-20.98
-16.44
-11.31
-6.07
-1.18
3.05
6.47
9.07
10.88
11.95
12.34
12.13
11.47
10.55
9.57
8.70
8.05
7.65
7.44
7.30
7.13
6.85
6.49
6.13
5.89
5.81
5.83
5.82
5.65
5.26
4.66
3.88
2.85
1.46
-0.39
-2.68
-5.16
-7.39
-8.87
-9.23
-8.32
-6.26
-3.40
-0.18
2.98
5.75
7.96
9.53
10.47
10.86
10.81
10.39
9.75
8.96
8.15
7.37
6.62
5.84
4.89
3.68
2.16
0.45
-1.33
-3.02
-4.54
-5.87
-7.05
-8.06
-8.86
-9.39
-9.62
-9.64
-9.63
-9.79
-10.29
-11.14
-12.22
-13.26
-13.96
-14.03
-13.28
-11.60
-9.08
-5.86
-2.18
1.66
5.39
8.70
11.33
13.15
14.13
14.40
14.15
13.58
12.84
11.97
11.00
9.94
8.85
7.81
6.89
6.04
5.19
4.25
3.26
2.33
1.54
0.94
0.41
-0.26
-1.24
-2.61
-4.31
-6.19
-8.13
-10.09
-12.00
-13.81
-15.29
-16.12
-15.95
-14.59
-12.07
-8.70
-4.96
-1.33
1.83
4.33
6.17
7.41
8.10
8.16
7.47
6.00
3.85
1.36
-0.97
-2.71
-3.53
-3.42
-2.59
-1.44
-0.39
0.20
0.09
-0.76
-2.24
-4.13
-6.10
-7.86
-9.24
-10.23
-10.98
-11.80
-12.92
-14.44
-16.25
-17.96
-18.99
-18.72
-16.70
-12.78
-7.26
-0.77
5.83
11.71
16.30
19.30
20.75
20.86
20.03
18.70
17.33
16.32
15.91
16.17
16.90
17.73
18.22
18.01
16.93
15.06
12.69
10.19
7.86
5.88
4.29
3.02
2.00
1.17
0.47
-0.14
-0.73
-1.38
-2.13
-2.96
-3.75
-4.37
-4.62
-4.36
-3.43
-1.75
0.64
3.55
6.62
9.48
11.72
13.14
13.64
13.34
12.39
11.04
9.49
7.93
6.53
5.36
4.44
3.69
3.03
2.33
1.50
0.43
-0.97
-2.70
-4.69
-6.79
-8.75
-10.33
-11.33
-11.65
-11.36
-10.68
-9.90
-9.37
-9.34
-9.92
-11.06
-12.56
-14.10
-15.37
-16.00
-15.69
-14.28
-11.73
-8.23
-4.14
0.08
3.97
7.23
9.72
11.43
12.37
12.56
12.02
10.81
9.13
7.32
5.74
4.68
4.21
4.14
4.14
3.87
3.12
1.89
0.32
-1.37
-2.99
-4.41
-5.65
-6.76
-7.81
-8.95
-10.26
-11.85
-13.76
-15.95
-18.27
-20.50
-22.33
-23.47
-23.68
-22.86
-21.03
-18.30
-14.80
-10.62
-5.82
-0.52
5.03
10.41
15.09
18.58
20.66
21.30
20.78
19.46
17.70
15.76
13.83
12.01
10.37
9.01
7.97
7.26
6.86
6.69
6.71
6.88
7.14
7.40
7.49
7.17
6.22
4.44
1.79
-1.62
-5.50
-9.35
-12.57
-14.52
-14.71
-12.90
-9.29
-4.49
0.62
5.13
8.38
10.16
10.66
10.28
9.42
8.29
6.95
5.37
3.59
1.78
0.13
-1.18
-2.18
-3.06
-3.98
-5.02
-6.01
-6.71
-6.89
-6.53
-5.84
-5.15
-4.83
-5.05
-5.80
-6.81
-7.80
-8.51
-8.86
-8.93
-8.91
-8.99
-9.31
-9.88
-10.59
-11.21
-11.46
-11.09
-9.91
-7.84
-4.99
-1.57
2.06
5.50
8.37
10.41
11.54
11.87
11.66
11.21
10.80
10.56
10.46
10.34
9.98
9.26
8.14
6.76
5.31
3.96
2.76
1.69
0.65
-0.42
-1.55
-2.75
-4.01
-5.36
-6.84
-8.41
-9.97
-11.36
-12.52
-13.51
-14.45
-15.46
-16.47
-17.20
-17.21
-16.12
-13.76
-10.31
-6.19
-1.92
2.07
5.48
8.13
9.90
10.74
10.66
9.74
8.21
6.40
4.69
3.42
2.78
2.79
3.28
4.05
4.82
5.44
5.85
6.06
6.15
6.19
6.12
5.88
5.41
4.75
4.00
3.31
2.77
2.37
2.00
1.53
0.87
0.09
-0.63
-1.02
-0.83
0.13
1.89
4.32
7.05
9.56
11.26
11.66
10.58
8.27
5.44
3.06
2.03
2.82
5.34
9.05
13.12
16.67
18.94
19.52
18.35
15.66
11.92
7.76
4.04
1.63
1.13
2.64
5.73
9.49
12.72
14.15
12.93
9.15
3.73
-1.89
-6.28
-8.24
-6.95
-2.24
5.25
14.12
22.39
27.64
27.29
19.20
2.95
-18.95
-40.92
-57.19
-64.91
-64.63
-58.80
-50.19
-40.79
-31.59
-22.84
-14.64
-7.49
-2.02
1.49
3.26
3.87
4.12
4.77
6.33
8.81
11.59
13.99
15.59
16.43
16.74
16.90
17.21
17.81
18.53
18.75
18.04
15.88
12.50
8.07
2.85
-2.93
-9.00
-15.08
-21.30
-27.26
-32.47
-36.51
-39.15
-40.48
-40.96
-41.43
-42.81
-46.11
-50.97
-56.00
-59.18
-58.63
-53.19
-42.76
-28.14
-8.48
12.81
32.94
49.88
62.12
68.54
68.59
62.69
52.20
39.21
25.43
12.73
2.41
-4.93
-8.99
-9.84
-7.98
-4.89
-1.90
-0.99
-3.18
-8.36
-15.22
-21.60
-25.32
-25.14
-21.11
-14.54
-7.52
-1.74
1.93
3.43
3.18
1.65
-0.82
-4.04
-7.78
-11.84
-15.84
-19.40
-22.47
-25.36
-28.42
-31.98
-35.97
-39.94
-43.28
-45.48
-46.39
-46.34
-45.99
-46.02
-47.08
-49.50
-53.21
-57.68
-61.88
-64.43
-64.04
-59.91
-52.00
-41.07
-28.42
-15.50
-3.64
6.08
13.01
17.00
18.44
18.22
17.37
16.67
16.36
16.06
15.20
13.48
11.09
8.71
7.09
6.58
6.97
7.64
7.93
7.53
6.59
5.56
4.89
4.74
4.87
4.77
3.89
1.78
-1.71
-6.37
-11.72
-16.97
-21.27
-23.76
-23.78
-21.04
-15.68
-8.27
0.28
8.94
16.71
22.75
26.60
28.20
27.86
26.15
23.78
21.39
19.36
17.90
17.08
16.84
17.12
17.80
18.69
19.56
20.16
20.29
19.89
18.99
17.68
16.13
14.43
12.72
11.04
9.37
7.55
5.36
2.54
-1.02
-5.12
-9.26
-12.66
-14.51
-14.25
-11.75
-7.41
-2.01
3.57
8.63
12.77
15.92
18.18
19.60
20.15
19.80
18.60
16.87
15.10
13.79
13.30
13.69
14.70
15.97
17.07
17.67
17.54
16.52
14.63
12.04
9.07
6.14
3.61
1.66
0.25
-0.86
-2.05
-3.65
-5.89
-8.77
-11.95
-14.78
-16.47
-16.30
-13.87
-9.29
-3.14
3.71
10.39
16.21
20.77
23.93
25.67
26.10
25.36
23.72
21.55
19.24
17.17
15.61
14.70
14.43
14.67
15.25
15.99
16.69
17.19
17.31
16.90
15.87
14.21
12.01
9.46
6.76
4.10
1.56
-0.91
-3.46
-6.32
-9.65
-13.34
-17.02
-19.98
-21.44
-20.74
-17.61
-12.32
-5.59
1.62
8.38
13.98
18.05
20.50
21.40
20.96
19.47
17.35
15.05
13.03
11.60
10.90
10.84
11.22
11.79
12.33
12.65
12.64
12.19
11.29
10.04
8.62
7.24
6.02
4.98
3.93
2.66
0.98
-1.17
-3.62
-6.00
-7.75
-8.25
-7.00
-3.74
1.41
7.90
14.95
21.70
27.48
31.89
34.89
36.58
37.08
36.52
34.98
32.69
29.99
27.37
25.20
23.67
22.68
21.91
21.01
19.71
17.98
15.94
13.78
11.67
9.72
7.99
6.54
5.34
4.27
3.06
1.36
-1.09
-4.32
-7.94
-11.21
-13.24
-13.35
-11.28
-7.37
-2.34
2.91
7.67
11.50
14.22
15.84
16.36
15.87
14.52
12.59
10.49
8.65
7.40
6.84
6.90
7.27
7.64
7.65
7.08
5.87
4.15
2.20
0.27
-1.43
-2.93
-4.36
-5.92
-7.71
-9.75
-11.97
-14.25
-16.43
-18.23
-19.21
-18.79
-16.49
-12.09
-5.91
1.31
8.57
14.93
19.88
23.26
25.28
26.19
26.22
25.48
24.02
21.94
19.45
16.92
14.69
13.00
11.87
11.11
10.43
9.55
8.31
6.66
4.74
2.69
0.59
-1.56
-3.82
-6.21
-8.71
-11.19
-13.54
-15.64
-17.44
-18.89
-19.83
-19.97
-18.96
-16.50
-12.56
-7.43
-1.77
3.66
8.21
11.49
13.42
14.12
13.86
12.88
11.42
9.64
7.73
5.84
4.13
2.70
1.61
0.89
0.49
0.28
0.05
-0.45
-1.38
-2.80
-4.61
-6.65
-8.67
-10.51
-12.05
-13.30
-14.30
-15.18
-16.10
-17.19
-18.54
-20.07
-21.53
-22.52
-22.55
-21.29
-18.64
-14.83
-10.30
-5.58
-1.08
2.95
6.36
9.06
10.89
11.65
11.26
9.86
7.84
5.75
4.06
3.04
2.70
2.82
3.18
3.60
4.02
4.39
4.66
4.67
4.29
3.40
1.97
0.10
-1.99
-4.02
-5.73
-6.92
-7.53
-7.69
-7.61
-7.57
-7.80
-8.38
-9.13
-9.79
-10.00
-9.44
-7.85
-5.06
-1.10
3.84
9.41
15.24
20.91
26.02
30.10
32.82
34.00
33.67
32.01
29.33
26.14
22.77
19.35
15.78
11.93
7.80
3.53
-0.71
-4.74
-7.94
-9.96
-10.85
-11.02
-10.87
-10.42
-9.47
-7.72
-5.04
-0.70
5.36
12.20
18.34
22.80
25.62
27.72
30.22
33.91
40.45
50.37
62.54
74.67
84.70
91.71
95.71
97.23
96.98
97.80
101.93
109.74
119.55
128.73
134.62
134.84
127.70
100.67
50.32
-15.20
-80.20
-131.97
-166.34
-185.65
-194.15
-195.16
-190.46
-179.73
-162.49
-140.65
-118.36
-99.71
-86.90
-80.01
-77.57
-77.58
-76.64
-73.05
-66.71
-58.96
-51.34
-44.65
-39.06
-34.58
-31.39
-28.87
-26.61
-24.74
-23.76
-23.87
-24.72
-25.69
-26.27
-26.26
-25.24
-23.04
-19.90
-16.46
-13.37
-11.09
-9.85
-9.79
-11.07
-13.70
-17.69
-23.02
-29.56
-36.71
-43.46
-48.56
-50.91
-49.99
-45.98
-39.77
-32.59
-25.54
-19.31
-13.95
-9.06
-4.18
0.89
6.01
10.71
14.55
17.34
19.26
20.68
21.94
23.05
23.73
23.60
22.44
20.43
18.05
15.88
14.33
13.52
13.31
13.46
13.77
14.06
14.22
14.07
13.35
11.87
9.58
6.56
3.09
-0.52
-3.92
-6.80
-8.95
-10.29
-10.84
-10.69
-9.97
-8.65
-6.57
-3.52
0.54
5.25
9.96
13.92
16.65
18.08
18.53
18.49
18.34
18.16
17.75
17.02
16.19
15.80
16.50
18.67
22.27
26.94
31.94
36.36
39.61
41.70
43.10
44.46
46.27
48.76
52.19
56.34
60.56
64.27
67.27
69.71
71.90
74.00
76.32
79.55
83.77
88.27
92.06
94.70
96.35
97.72
99.45
102.45
107.65
114.55
121.11
124.53
122.58
114.04
98.81
77.25
46.26
8.62
-27.94
-55.55
-71.01
-75.56
-72.45
-64.69
-57.25
-50.81
-44.88
-39.83
-37.18
-39.14
-46.81
-60.98
-78.02
-95.10
-109.34
-118.68
-123.10
-124.46
-125.82
-128.30
-132.69
-138.89
-147.02
-156.59
-166.46
-174.88
-179.24
-177.36
-165.42
-142.55
-110.64
-74.59
-40.59
-14.62
-0.96
-1.07
-14.43
-35.12
-57.16
-74.43
-82.37
-78.58
-63.33
-39.39
-4.26
26.08
48.50
59.34
56.94
42.08
18.18
-9.42
-34.84
-53.10
-62.57
-61.66
-52.45
-38.06
-21.58
-5.34
9.19
21.24
30.47
36.04
39.43
41.14
41.65
41.25
39.97
37.64
34.16
29.59
23.66
17.48
11.39
5.64
0.44
-4.04
-7.71
-10.56
-12.71
-14.60
-16.02
-17.07
-17.78
-18.19
-18.36
-18.33
-18.05
-17.30
-15.72
-12.70
-7.97
-1.75
5.22
11.82
17.00
20.19
21.48
21.50
21.06
20.66
20.36
19.82
18.67
16.85
14.73
12.92
12.08
12.52
14.23
16.88
20.04
23.25
26.11
28.28
29.45
29.41
28.13
25.83
22.91
19.97
17.70
16.78
17.76
20.88
26.01
32.55
39.65
46.37
51.96
55.98
58.28
58.88
57.84
55.18
50.95
45.32
38.63
31.40
24.23
17.65
12.06
7.68
4.62
2.88
2.41
3.09
4.71
6.89
9.11
10.78
11.36
10.47
7.99
4.13
-0.62
-5.47
-9.49
-11.76
-11.55
-8.68
-3.55
2.89
9.34
14.57
17.70
18.37
16.81
13.61
9.53
5.23
1.17
-2.48
-5.75
-8.79
-11.69
-14.38
-16.70
-18.45
-19.56
-20.17
-20.55
-20.88
-21.23
-21.44
-21.36
-20.98
-20.45
-19.96
-19.53
-18.87
-17.43
-14.65
-10.30
-4.62
1.69
7.77
12.92
16.73
19.11
20.19
20.18
19.31
17.78
15.82
13.65
11.43
9.26
7.18
5.16
3.22
1.43
-0.11
-1.23
-1.79
-1.76
-1.26
-0.57
-0.11
-0.29
-1.30
-2.97
-4.72
-5.70
-5.08
-2.43
2.13
7.95
14.11
19.71
24.16
27.22
28.95
29.56
29.25
28.22
26.60
24.56
22.21
19.69
17.10
14.56
12.20
10.19
8.64
7.48
6.49
5.26
3.38
0.57
-3.20
-7.72
-12.66
-17.69
-22.53
-26.93
-30.54
-32.86
-33.37
-31.67
-27.74
-22.01
-15.31
-8.73
-3.24
0.48
2.23
2.19
0.86
-1.21
-3.53
-5.80
-7.85
-9.62
-11.07
-12.08
-12.46
-12.10
-10.93
-9.15
-7.07
-5.15
-3.83
-3.44
-4.13
-5.88
-8.51
-11.70
-15.02
-17.90
-19.76
-20.06
-18.46
-14.93
-9.80
-3.76
2.44
8.03
12.47
15.52
17.26
17.95
17.89
17.37
16.50
15.34
13.98
12.60
11.50
10.90
10.85
11.15
11.40
11.19
10.26
8.65
6.57
4.33
2.08
-0.20
-2.66
-5.40
-8.27
-10.84
-12.42
-12.32
-10.09
-5.77
0.12
6.71
13.05
18.33
22.08
24.12
24.54
23.61
21.65
18.99
15.94
12.75
9.61
6.73
4.25
2.29
0.87
-0.13
-0.96
-1.91
-3.22
-5.01
-7.23
-9.72
-12.34
-14.97
-17.52
-19.85
-21.70
-22.68
-22.30
-20.21
-16.37
-11.10
-5.02
1.07
6.46
10.65
13.36
14.53
14.23
12.63
10.07
7.02
4.07
1.75
0.40
0.04
0.40
1.02
1.46
1.42
0.84
-0.16
-1.36
-2.60
-3.93
-5.56
-7.81
-10.89
-14.76
-19.06
-23.16
-26.29
-27.78
-27.29
-24.82
-20.76
-15.75
-10.51
-5.69
-1.80
0.86
2.21
2.34
1.50
0.06
-1.52
-2.86
-3.71
-4.07
-4.14
-4.22
-4.56
-5.30
-6.47
-8.01
-9.89
-12.02
-14.32
-16.66
-18.89
-20.94
-22.83
-24.69
-26.63
-28.53
-29.99
-30.42
-29.19
-25.93
-20.63
-13.74
-5.99
1.80
8.92
14.89
19.51
22.78
24.84
25.89
26.20
26.11
25.94
25.96
26.25
26.68
26.92
26.63
25.58
23.81
21.59
19.25
17.06
15.05
13.09
10.86
8.06
4.52
0.30
-4.24
-8.46
-11.60
-13.01
-12.35
-9.76
-5.80
-1.20
3.27
7.06
9.84
11.54
12.28
12.28
11.81
11.10
10.31
9.45
8.50
7.47
6.51
5.82
5.57
5.72
5.98
5.99
5.40
4.12
2.24
-0.00
-2.39
-4.82
-7.24
-9.66
-12.01
-14.24
-16.28
-18.03
-19.27
-19.66
-18.76
-16.17
-11.77
-5.84
0.99
7.91
14.23
19.47
23.40
25.97
27.20
27.20
26.17
24.46
22.47
20.53
18.77
17.09
15.21
12.82
9.73
6.02
2.05
-1.75
-5.03
-7.71
-10.02
-12.41
-15.29
-18.82
-22.77
-26.69
-30.13
-32.84
-34.91
-36.63
-38.43
-40.64
-43.45
-46.78
-50.25
-53.22
-54.87
-54.36
-51.11
-44.95
-36.23
-25.70
-14.29
-2.89
7.85
17.51
25.85
32.63
37.69
40.84
42.01
41.32
39.07
35.77
32.03
28.38
25.24
22.89
21.44
20.87
20.98
21.49
22.03
22.23
21.85
20.82
19.27
17.47
15.66
13.94
12.30
10.55
8.49
5.97
2.95
-0.48
-3.96
-7.00
-8.92
-9.12
-7.18
-3.11
2.59
9.05
15.21
20.21
23.53
25.18
25.44
24.73
23.36
21.46
19.06
16.14
12.79
9.25
5.85
2.87
0.48
-1.34
-2.81
-4.19
-5.82
-7.88
-10.39
-13.16
-15.82
-17.96
-19.22
-19.43
-18.67
-17.24
-15.60
-14.32
-13.93
-14.84
-17.32
-21.37
-26.74
-32.97
-39.50
-45.86
-51.67
-56.72
-60.77
-63.57
-64.78
-64.14
-61.49
-56.95
-50.88
-43.81
-36.38
-29.20
-22.80
-17.55
-13.63
-10.94
-9.16
-7.78
-6.34
-4.49
-2.11
0.70
3.78
6.94
10.05
12.94
15.45
17.45
18.84
19.64
19.97
19.97
19.70
19.13
18.18
16.78
15.00
13.02
11.05
9.28
7.78
6.49
5.27
4.02
2.72
1.49
0.49
-0.14
-0.26
0.23
1.42
3.33
5.94
9.04
12.31
15.33
17.77
19.47
20.47
20.92
20.99
20.78
20.34
19.73
19.09
18.55
18.22
18.13
18.18
18.27
18.30
18.22
17.97
17.54
16.85
15.95
14.97
14.14
13.66
13.62
13.90
14.21
14.20
13.55
12.11
9.92
7.21
4.36
1.78
-0.15
-1.24
-1.63
-1.68
-1.90
-2.66
-4.05
-5.83
-7.53
-8.64
-8.75
-7.73
-5.67
-2.87
0.28
3.35
5.96
7.83
8.82
8.91
8.23
6.99
5.40
3.63
1.77
-0.12
-2.04
-4.04
-6.21
-8.67
-11.49
-14.67
-18.06
-21.34
-24.20
-26.41
-27.96
-29.07
-30.01
-31.04
-32.26
-33.62
-34.94
-36.06
-36.84
-37.14
-36.81
-35.64
-33.34
-29.73
-24.69
-18.26
-10.60
-2.02
7.04
16.07
24.44
31.56
36.94
40.33
41.83
41.79
40.73
39.16
37.42
35.64
33.83
31.96
30.03
28.09
26.16
24.23
22.27
20.36
18.77
17.84
17.88
18.95
20.80
22.93
24.94
26.58
27.87
28.89
29.60
29.66
28.63
26.05
21.76
15.96
9.17
2.00
-4.98
-11.28
-16.55
-20.46
-22.75
-23.31
-22.27
-20.02
-17.11
-14.12
-11.50
-9.49
-8.14
-7.34
-6.90
-6.62
-6.34
-5.89
-5.18
-4.22
-3.06
-1.82
-0.61
0.47
1.32
1.82
1.81
1.22
0.00
-1.72
-3.71
-5.70
-7.49
-9.03
-10.42
-11.89
-13.65
-15.88
-18.57
-21.54
-24.41
-26.66
-27.77
-27.40
-25.42
-22.03
-17.62
-12.65
-7.57
-2.75
1.47
4.80
7.03
8.13
8.22
7.68
6.96
6.44
6.29
6.48
6.75
6.84
6.56
5.88
4.99
4.17
3.70
3.68
4.06
4.63
5.13
5.33
5.12
4.43
3.25
1.52
-0.76
-3.47
-6.37
-9.05
-11.05
-11.99
-11.61
-9.89
-7.05
-3.42
0.55
4.46
8.01
11.03
13.46
15.30
16.58
17.28
17.44
17.16
16.67
16.22
16.01
16.05
16.13
15.95
15.23
13.82
11.81
9.42
6.91
4.50
2.27
0.26
-1.56
-3.20
-4.73
-6.24
-7.81
-9.49
-11.23
-12.88
-14.23
-15.07
-15.23
-14.63
-13.18
-10.84
-7.55
-3.38
1.50
6.75
11.93
16.65
20.62
23.74
26.01
27.49
28.27
28.44
28.09
27.34
26.31
25.08
23.73
22.26
20.67
18.94
17.09
15.09
12.93
10.60
8.13
5.61
3.13
0.76
-1.47
-3.58
-5.65
-7.80
-10.08
-12.49
-14.94
-17.27
-19.26
-20.77
-21.69
-21.98
-21.71
-20.93
-19.76
-18.33
-16.86
-15.68
-15.16
-15.65
-17.32
-20.02
-23.34
-26.73
-29.59
-31.54
-32.42
-32.35
-31.63
-30.56
-29.36
-28.08
-26.64
-24.88
-22.69
-20.03
-17.00
-13.75
-10.50
-7.48
-4.89
-2.90
-1.58
-0.81
-0.31
0.39
1.80
4.28
7.98
12.69
17.92
23.04
27.44
30.64
32.37
32.60
31.47
29.26
26.24
22.69
18.81
14.88
11.22
8.22
6.28
5.63
6.17
7.46
8.86
9.84
10.12
9.76
9.02
8.18
7.30
6.23
4.69
2.32
-1.18
-6.00
-12.22
-19.60
-27.54
-35.08
-41.03
-44.33
-44.46
-41.60
-36.65
-30.88
-25.47
-21.21
-18.37
-16.74
-15.80
-15.00
-13.88
-12.17
-9.77
-6.74
-3.25
0.40
3.88
6.88
9.15
10.61
11.27
11.26
10.73
9.78
8.47
6.79
4.71
2.25
-0.51
-3.47
-6.48
-9.43
-12.26
-14.89
-17.17
-18.86
-19.57
-18.93
-16.66
-12.83
-7.81
-2.22
3.28
8.19
12.19
15.12
16.90
17.44
16.77
15.05
12.68
10.18
8.06
6.64
5.97
5.85
5.97
6.08
5.98
5.63
5.01
4.12
2.99
1.65
0.20
-1.23
-2.54
-3.69
-4.72
-5.77
-6.93
-8.15
-9.27
-9.97
-9.95
-8.99
-7.02
-4.12
-0.48
3.68
8.07
12.42
16.46
19.92
22.58
24.28
24.97
24.69
23.59
21.88
19.84
17.78
16.03
14.84
14.36
14.58
15.32
16.23
16.89
16.97
16.27
14.84
12.90
10.75
8.68
6.82
5.17
3.59
1.97
0.18
-1.78
-3.82
-5.77
-7.37
-8.34
-8.43
-7.50
-5.52
-2.73
0.54
3.89
6.97
9.54
11.48
12.72
13.24
13.06
12.21
10.82
9.01
6.94
4.72
2.52
0.58
-0.86
-1.56
-1.50
-0.87
-0.10
0.38
0.28
-0.38
-1.34
-2.25
-2.86
-3.18
-3.45
-3.99
-5.03
-6.58
-8.42
-10.18
-11.53
-12.17
-11.96
-10.88
-8.93
-6.18
-2.71
1.29
5.57
9.79
13.63
16.82
19.22
20.83
21.75
22.13
22.10
21.77
21.21
20.55
20.01
19.83
20.22
21.16
22.32
23.23
23.39
22.56
20.88
18.76
16.75
15.26
14.42
14.07
13.96
13.78
13.37
12.74
12.05
11.57
11.66
12.62
14.56
17.33
20.38
22.91
24.06
23.25
20.42
16.07
11.08
6.38
2.65
0.07
-1.61
-2.93
-4.42
-6.35
-8.76
-11.43
-14.15
-16.73
-19.20
-21.70
-24.38
-27.30
-30.35
-33.30
-35.85
-37.80
-39.16
-40.13
-40.97
-41.98
-43.29
-44.80
-46.21
-47.05
-46.84
-45.28
-42.32
-38.14
-33.10
-27.60
-22.01
-16.62
-11.68
-7.48
-4.32
-2.39
-1.75
-2.18
-3.33
-4.75
-6.04
-7.01
-7.65
-8.05
-8.34
-8.54
-8.55
-8.16
-7.27
-5.93
-4.46
-3.28
-2.77
-3.04
-3.98
-5.30
-6.71
-8.11
-9.51
-10.95
-12.30
-13.24
-13.38
-12.47
-10.48
-7.70
-4.56
-1.51
1.16
3.32
4.99
6.21
6.99
7.28
7.05
6.34
5.31
4.18
3.19
2.47
1.99
1.62
1.22
0.71
0.15
-0.37
-0.82
-1.23
-1.75
-2.51
-3.54
-4.79
-6.22
-7.81
-9.59
-11.55
-13.54
-15.29
-16.43
-16.71
-16.01
-14.46
-12.28
-9.70
-7.00
-4.34
-1.94
0.03
1.42
2.13
2.16
1.55
0.39
-1.13
-2.74
-4.17
-5.19
-5.68
-5.71
-5.44
-5.02
-4.55
-4.04
-3.45
-2.80
-2.12
-1.47
-0.90
-0.42
-0.05
0.11
-0.05
-0.62
-1.56
-2.61
-3.32
-3.31
-2.33
-0.47
1.95
4.49
6.76
8.48
9.52
9.81
9.37
8.25
6.63
4.75
2.95
1.51
0.52
-0.05
-0.30
-0.36
-0.26
0.03
0.60
1.52
2.82
4.47
6.34
8.27
10.00
11.29
11.93
11.82
11.11
10.06
9.04
8.46
8.65
9.80
11.91
14.77
17.93
20.84
22.94
23.87
23.55
22.15
20.09
17.85
15.82
14.19
12.92
11.79
10.59
9.14
7.42
5.51
3.59
1.84
0.27
-1.18
-2.72
-4.59
-6.96
-9.83
-13.01
-16.06
-18.47
-19.79
-19.80
-18.61
-16.67
-14.61
-13.01
-12.27
-12.45
-13.20
-13.85
-13.59
-11.67
-7.78
-2.17
4.28
10.34
14.81
17.01
16.91
15.01
12.07
8.64
4.97
1.01
-3.32
-7.94
-12.56
-16.78
-20.33
-23.16
-25.44
-27.35
-28.95
-30.22
-31.03
-31.34
-31.29
-31.15
-31.23
-31.75
-32.65
-33.58
-33.97
-33.18
-30.69
-26.36
-20.50
-13.75
-6.93
-0.76
4.41
8.57
11.90
14.54
16.51
17.68
18.04
17.75
17.17
16.75
16.76
17.19
17.74
18.05
17.83
17.05
15.86
14.56
13.36
12.32
11.35
10.23
8.77
6.83
4.44
1.71
-1.17
-4.03
-6.69
-8.92
-10.49
-11.09
-10.52
-8.68
-5.72
-1.99
2.02
5.85
9.10
11.50
12.89
13.25
12.69
11.46
9.89
8.36
7.17
6.47
6.27
6.43
6.78
7.18
7.53
7.78
7.92
7.94
7.77
7.35
6.58
5.42
3.92
2.23
0.59
-0.77
-1.70
-2.22
-2.56
-3.01
-3.92
-5.48
-7.70
-10.33
-12.95
-15.03
-16.07
-15.67
-13.67
-10.22
-5.70
-0.72
4.11
8.31
11.57
13.78
14.94
15.10
14.30
12.71
10.58
8.36
6.57
5.57
5.48
6.03
6.77
7.24
7.18
6.53
5.47
4.19
2.81
1.36
-0.17
-1.72
-3.15
-4.20
-4.67
-4.49
-3.77
-2.85
-2.15
-2.07
-2.86
-4.54
-6.89
-9.49
-11.82
-13.38
-13.76
-12.70
-10.13
-6.23
-1.41
3.80
8.87
13.32
16.91
19.46
20.93
21.27
20.52
18.81
16.49
14.00
11.82
10.35
9.72
9.89
10.62
11.58
12.46
13.02
13.07
12.54
11.47
9.96
8.16
6.23
4.24
2.29
0.42
-1.29
-2.80
-4.10
-5.34
-6.69
-8.33
-10.36
-12.63
-14.74
-16.20
-16.47
-15.21
-12.38
-8.24
-3.26
1.98
6.96
11.27
14.66
16.99
18.20
18.27
17.29
15.42
12.94
10.26
7.80
5.90
4.74
4.25
4.19
4.24
4.13
3.76
3.22
2.63
2.13
1.82
1.68
1.71
1.86
2.05
2.13
1.89
1.10
-0.30
-2.23
-4.44
-6.56
-8.21
-9.06
-8.86
-7.53
-5.12
-1.93
1.60
4.95
7.65
9.47
10.36
10.48
10.00
9.06
7.73
6.09
4.29
2.57
1.22
0.47
0.43
1.06
2.19
3.63
5.20
6.80
8.33
9.77
11.02
12.04
12.76
13.16
13.27
13.15
12.87
12.41
11.72
10.61
8.95
6.77
4.31
2.07
0.58
0.19
0.95
2.52
4.36
5.95
6.93
7.18
6.81
5.97
4.84
3.55
2.18
0.77
-0.66
-2.09
-3.49
-4.79
-5.91
-6.81
-7.45
-7.89
-8.20
-8.43
-8.60
-8.71
-8.76
-8.78
-8.80
-8.81
-8.81
-8.74
-8.59
-8.39
-8.21
-8.05
-7.86
-7.47
-6.71
-5.48
-3.75
-1.59
0.82
3.30
5.69
7.79
9.39
10.28
10.28
9.36
7.66
5.41
2.96
0.64
-1.29
-2.64
-3.30
-3.34
-2.95
-2.48
-2.30
-2.63
-3.46
-4.55
-5.52
-6.14
-6.43
-6.61
-7.03
-7.87
-9.11
-10.47
-11.59
-12.18
-12.07
-11.20
-9.58
-7.25
-4.34
-1.12
2.01
4.63
6.38
7.23
7.29
6.86
6.17
5.28
4.24
2.98
1.58
0.15
-1.11
-2.10
-2.77
-3.14
-3.31
-3.35
-3.40
-3.62
-4.14
-5.00
-6.16
-7.44
-8.64
-9.56
-10.10
-10.19
-9.81
-8.95
-7.60
-5.85
-3.85
-1.86
-0.22
0.75
0.82
-0.10
-1.82
-4.03
-6.25
-7.98
-8.88
-8.81
-7.95
-6.69
-5.47
-4.58
-4.10
-3.86
-3.57
-3.04
-2.29
-1.55
-1.15
-1.29
-1.99
-3.08
-4.33
-5.58
-6.77
-7.84
-8.61
-8.76
-7.94
-5.99
-3.05
0.42
3.85
6.76
8.92
10.34
11.08
11.19
10.64
9.43
7.72
5.80
4.00
2.52
1.39
0.44
-0.50
-1.53
-2.58
-3.52
-4.20
-4.57
-4.72
-4.82
-5.10
-5.73
-6.83
-8.37
-10.26
-12.30
-14.26
-15.89
-16.87
-16.86
-15.60
-13.01
-9.30
-4.96
-0.64
3.08
5.86
7.63
8.51
8.71
8.36
7.54
6.35
4.93
3.51
2.24
1.22
0.38
-0.41
-1.26
-2.16
-3.05
-3.77
-4.29
-4.67
-5.01
-5.50
-6.21
-7.16
-8.27
-9.51
-10.76
-11.93
-12.86
-13.32
-13.05
-11.81
-9.49
-6.20
-2.24
1.97
5.96
9.34
11.90
13.53
14.31
14.38
13.90
13.07
12.04
10.95
9.89
8.93
8.13
7.55
7.23
7.13
7.16
7.16
6.94
6.38
5.47
4.28
2.98
1.68
0.39
-0.94
-2.39
-4.01
-5.67
-7.18
-8.35
-9.00
-9.06
-8.54
-7.46
-5.89
-3.88
-1.54
0.93
3.28
5.21
6.51
7.09
6.97
6.31
5.39
4.42
3.53
2.74
1.98
1.23
0.55
0.12
0.11
0.53
1.23
1.88
2.12
1.78
0.86
-0.47
-2.01
-3.66
-5.45
-7.41
-9.48
-11.49
-13.17
-14.20
-14.33
-13.44
-11.52
-8.68
-5.15
-1.17
2.94
6.86
10.32
13.11
15.06
16.13
16.37
16.02
15.39
14.81
14.47
14.36
14.28
13.94
13.17
12.00
10.66
9.47
8.66
8.22
7.95
7.52
6.72
5.52
4.09
2.72
1.67
1.02
0.74
0.67
0.61
0.36
-0.21
-1.20
-2.55
-4.16
-5.82
-7.31
-8.42
-8.98
-8.90
-8.18
-6.95
-5.48
-4.18
-3.50
-3.83
-5.27
-7.68
-10.68
-13.80
-16.65
-18.90
-20.41
-21.10
-21.00
-20.14
-18.66
-16.75
-14.62
-12.57
-10.83
-9.59
-8.88
-8.61
-8.60
-8.67
-8.82
-9.21
-10.04
-11.42
-13.22
-15.08
-16.56
-17.38
-17.55
-17.36
-17.25
-17.56
-18.34
-19.34
-20.00
-19.76
-18.17
-15.12
-10.87
-5.94
-0.99
3.43
7.05
9.87
12.08
13.86
15.31
16.45
17.25
17.80
18.33
19.18
20.62
22.75
25.43
28.38
31.26
33.89
36.26
38.54
40.97
43.71
46.76
49.98
53.15
56.15
59.12
62.39
66.33
71.12
76.64
82.49
88.24
93.63
98.71
103.79
109.18
114.94
120.82
126.22
130.56
133.45
134.90
135.24
134.90
134.19
133.17
131.57
128.93
124.77
118.81
111.04
101.75
91.43
80.61
69.77
59.21
49.02
39.03
28.87
17.94
5.67
-8.22
-23.55
-39.52
-54.80
-67.87
-77.46
-82.92
-84.35
-82.68
-79.05
-74.40
-69.31
-64.16
-59.35
-55.40
-52.94
-52.62
-55.16
-60.61
-68.09
-75.72
-81.27
-82.87
-79.70
-72.27
-62.18
-52.06
-43.97
-38.69
-35.74
-34.27
-33.66
-33.76
-34.70
-36.62
-41.21
-49.33
-60.39
-72.64
-84.38
-94.74
-103.70
-111.73
-119.36
-130.40
-146.79
-167.14
-187.51
-204.11
-215.15
-220.82
-222.47
-221.66
-225.49
-238.52
-260.61
-287.71
-315.43
-341.13
-363.51
-381.65
-394.42
-408.48
-428.23
-453.17
-478.55
-499.62
-514.04
-521.45
-522.07
-471.68
-352.32
-180.05
4.14
163.66
282.12
359.39
402.92
421.20
425.80
417.11
395.60
365.47
334.11
307.86
289.53
278.93
274.32
273.89
270.10
258.29
238.81
216.33
195.99
180.79
171.36
166.83
165.76
162.67
153.95
139.47
122.12
105.34
91.32
80.78
73.46
68.77
63.99
57.21
48.16
37.98
28.10
19.50
12.67
7.81
5.09
3.76
3.20
3.07
3.25
3.65
4.06
4.36
4.55
4.83
5.23
5.67
5.93
5.78
5.19
4.32
3.48
2.92
2.73
2.79
2.81
2.58
2.03
1.29
0.59
0.08
-0.20
-0.37
-0.66
-1.33
-2.51
-4.18
-6.16
-8.18
-9.98
-11.34
-12.21
-12.63
-12.76
-12.81
-13.01
-13.45
-14.05
-14.54
-14.47
-13.39
-11.05
-7.58
-3.49
0.50
3.69
5.70
6.53
6.50
6.11
5.80
5.86
6.42
7.51
9.04
10.92
13.02
15.13
17.02
18.47
19.37
19.75
19.88
20.14
20.88
22.06
23.21
23.46
21.98
18.36
12.88
6.46
0.38
-4.12
-6.27
-5.76
-2.63
2.99
10.91
20.61
31.12
41.27
50.14
57.46
63.85
70.62
79.23
90.58
104.16
118.13
130.03
137.74
140.17
137.36
130.36
121.02
111.33
102.50
94.69
87.22
79.08
69.38
57.68
44.31
30.68
18.48
8.46
-0.05
-8.72
-19.42
-33.59
-52.07
-75.03
-102.84
-131.97
-156.17
-170.34
-173.74
-169.35
-161.28
-152.74
-147.11
-142.32
-135.17
-123.35
-106.27
-84.90
-60.94
-35.96
-10.88
12.45
32.50
47.69
56.37
57.36
50.80
38.72
24.65
12.29
4.27
1.79
4.04
8.78
13.32
15.67
15.16
12.41
8.62
4.99
2.55
1.64
1.97
2.75
3.05
2.12
-0.56
-5.25
-11.87
-19.73
-27.87
-35.20
-41.00
-45.06
-47.67
-49.21
-49.80
-49.20
-46.95
-42.95
-37.57
-31.68
-26.01
-20.71
-15.27
-8.84
-0.87
8.48
18.42
28.00
36.42
43.30
48.42
51.59
52.51
50.79
46.22
39.02
29.86
19.72
9.60
0.36
-7.44
-13.54
-17.98
-21.02
-22.87
-23.58
-23.03
-21.18
-18.19
-14.53
-10.77
-7.47
-4.73
-1.91
2.34
9.74
20.96
34.90
48.83
59.80
65.61
65.37
59.33
48.67
35.12
20.50
6.54
-5.34
-14.05
-19.20
-20.98
-20.11
-17.50
-14.23
-11.59
-10.73
-12.60
-16.45
-20.63
-23.12
-22.49
-18.32
-11.34
-2.98
5.46
13.22
20.05
25.41
28.31
27.39
22.25
14.12
5.62
-0.23
-1.56
1.34
6.00
10.38
11.68
8.47
1.25
-8.05
-17.30
-25.11
-31.25
-36.11
-39.95
-42.60
-43.14
-40.77
-35.59
-28.94
-22.96
-19.62
-19.81
-23.04
-28.06
-33.30
-37.60
-40.49
-41.92
-41.83
-40.05
-36.35
-30.84
-24.08
-16.87
-9.97
-3.96
0.61
3.16
3.10
0.10
-5.42
-12.22
-18.43
-22.40
-23.40
-22.01
-19.65
-17.81
-17.39
-18.43
-20.49
-23.07
-26.04
-29.42
-33.08
-36.35
-38.13
-37.39
-33.66
-27.41
-19.91
-12.67
-6.76
-2.46
0.70
3.61
7.07
11.48
16.81
22.72
28.96
35.44
42.13
48.85
54.99
59.59
61.70
60.81
57.36
52.84
49.45
49.32
53.66
62.06
72.47
81.68
86.48
84.84
76.61
63.65
49.06
36.07
26.95
22.29
21.10
21.35
20.86
18.16
12.96
6.18
-0.31
-4.29
-3.87
1.83
12.18
24.77
35.92
41.59
38.81
26.92
8.21
-12.65
-30.13
-39.93
-40.61
-33.94
-23.93
-15.01
-10.30
-10.70
-15.14
-21.49
-27.56
-31.79
-33.37
-32.05
-28.04
-22.12
-15.71
-10.69
-8.77
-10.71
-15.87
-22.47
-28.44
-32.54
-34.97
-37.32
-41.59
-48.97
-59.01
-69.54
-77.34
-79.40
-73.97
-61.18
-42.95
-22.18
-1.88
15.80
29.92
40.74
49.34
57.25
66.17
77.64
92.60
110.58
129.33
144.92
152.97
150.47
137.29
116.30
91.99
68.18
46.33
25.25
2.73
-22.30
-48.20
-70.82
-85.28
-88.36
-80.03
-63.67
-44.72
-28.66
-19.34
-18.17
-24.34
-35.66
-49.67
-64.39
-78.56
-91.46
-102.42
-110.71
-115.55
-116.42
-113.25
-106.49
-96.75
-84.67
-70.88
-56.04
-40.89
-26.03
-11.65
2.65
17.44
32.62
46.71
56.87
60.03
54.65
41.90
25.66
10.80
0.89
-3.38
-4.36
-5.77
-10.26
-17.77
-25.30
-28.54
-24.17
-11.62
6.47
25.37
40.12
47.53
46.88
39.76
28.87
16.76
5.11
-5.39
-14.47
-21.80
-26.72
-28.51
-26.86
-22.25
-15.92
-9.53
-4.69
-2.34
-2.55
-4.44
-6.53
-7.04
-4.30
2.70
13.99
28.36
43.57
56.82
65.61
68.36
64.77
55.73
42.80
27.83
12.64
-0.99
-11.45
-17.47
-18.59
-15.48
-9.83
-3.80
0.79
3.07
3.25
2.09
0.23
-2.16
-5.30
-9.19
-13.16
-15.81
-15.54
-11.28
-3.25
7.05
17.31
25.35
29.86
30.83
29.14
26.06
22.50
18.64
14.10
8.31
1.08
-7.16
-15.46
-22.77
-28.36
-32.07
-34.20
-35.20
-35.43
-34.90
-33.43
-30.72
-26.66
-21.41
-15.49
-9.73
-5.11
-2.52
-2.35
-4.21
-6.95
-8.98
-8.92
-6.13
-0.94
5.59
12.23
18.08
22.80
26.50
29.49
31.99
34.08
35.65
36.62
36.90
36.44
35.29
33.64
31.92
30.61
30.13
30.47
31.16
31.28
29.75
25.79
19.39
11.47
3.74
-1.81
-3.65
-1.37
4.12
10.77
16.22
18.96
19.00
17.85
17.78
20.76
27.64
37.91
50.02
61.95
71.86
78.32
80.18
76.39
66.23
49.64
27.79
2.94
-22.21
-44.96
-63.37
-76.75
-85.45
-90.30
-91.92
-90.09
-84.30
-74.60
-61.37
-45.70
-29.51
-15.03
-4.06
2.67
6.15
7.99
9.05
10.53
13.85
20.05
29.87
43.59
60.73
80.64
101.16
118.02
128.36
131.69
129.34
123.87
118.04
113.61
112.03
112.87
113.08
111.11
107.29
102.14
95.85
87.91
69.86
39.18
8.17
-18.89
-43.14
-64.21
-82.20
-97.59
-110.88
-122.26
-130.37
-134.57
-136.88
-138.62
-139.90
-140.41
-139.23
-135.15
-127.36
-115.08
-99.03
-82.37
-67.39
-54.95
-45.19
-37.83
-32.48
-29.03
-27.14
-26.81
-28.88
-33.02
-37.78
-41.50
-42.79
-41.03
-36.56
-30.26
-23.53
-18.00
-14.40
-12.49
-11.63
-11.13
-10.62
-9.97
-9.07
-7.70
-5.74
-2.99
0.46
3.92
6.35
6.81
5.11
2.08
-0.69
-1.57
0.34
4.93
11.26
18.15
24.78
30.86
36.35
40.99
44.08
44.79
42.75
38.53
33.49
29.22
26.73
25.89
25.62
24.54
21.79
17.49
12.53
8.00
4.57
2.19
0.24
-1.95
-4.70
-7.86
-10.94
-13.37
-14.73
-14.92
-14.10
-12.65
-11.03
-9.63
-8.64
-7.99
-7.30
-6.05
-3.85
-0.57
3.53
7.97
12.14
15.48
17.62
18.52
18.49
18.01
17.66
17.84
18.70
20.05
21.47
22.49
23.00
23.09
22.82
21.98
20.25
17.34
13.34
8.88
4.87
2.57
2.96
6.27
11.76
18.14
23.88
27.70
28.98
27.70
24.98
22.58
22.16
24.46
29.21
34.98
39.64
41.07
35.07
19.74
-2.72
-26.46
-45.53
-55.94
-56.51
-49.90
-38.27
-24.24
-10.44
0.77
7.76
9.30
4.96
-4.83
-18.21
-32.28
-44.46
-52.71
-56.47
-56.65
-55.89
-53.81
-50.21
-44.49
-36.03
-25.09
-12.51
-1.31
8.80
18.30
28.10
38.89
51.23
65.25
79.58
92.14
100.92
105.03
104.39
100.07
93.37
85.48
77.04
68.06
58.68
49.61
42.46
38.61
38.64
41.61
45.48
47.99
47.73
44.83
40.70
37.18
35.06
33.86
32.11
28.50
22.63
15.13
7.21
-0.27
-7.04
-13.63
-20.72
-28.78
-37.90
-48.04
-59.30
-71.87
-85.74
-100.29
-114.21
-125.71
-133.16
-135.60
-133.22
-127.20
-119.20
-110.79
-102.86
-95.63
-88.87
-82.32
-75.93
-69.88
-64.33
-59.20
-54.31
-49.46
-44.64
-39.95
-35.37
-30.54
-24.76
-17.45
-8.64
0.67
8.68
13.50
13.81
9.47
1.39
-8.88
-19.83
-30.38
-40.02
-48.64
-56.14
-62.34
-66.88
-69.43
-69.78
-67.96
-64.12
-58.45
-51.05
-41.96
-31.39
-19.91
-8.60
1.19
8.28
12.08
12.92
11.89
10.37
9.47
9.67
10.88
12.65
14.56
16.33
17.88
19.18
20.21
21.02
21.77
22.74
24.13
25.90
27.60
28.50
27.92
25.59
21.76
17.17
12.77
9.35
7.29
6.58
6.82
7.52
8.11
8.12
7.28
5.56
3.24
0.90
-0.63
-0.60
1.47
5.68
11.79
19.31
27.54
35.55
42.22
46.50
47.78
46.35
43.37
40.50
39.11
39.66
41.50
43.24
43.56
41.77
37.99
32.83
26.91
20.58
14.09
7.92
2.85
-0.33
-1.39
-0.86
0.02
-0.03
-1.77
-5.00
-8.89
-12.57
-15.70
-18.53
-21.55
-24.93
-28.18
-30.53
-31.36
-30.68
-29.04
-27.11
-25.14
-22.88
-19.88
-16.17
-12.60
-10.56
-11.24
-14.68
-19.51
-23.27
-23.52
-18.86
-9.42
3.31
17.26
30.55
41.95
50.85
56.96
60.02
59.77
56.30
50.15
42.40
34.29
26.87
20.65
15.66
11.64
8.29
5.37
2.61
-0.36
-3.97
-8.41
-13.38
-18.06
-21.22
-21.67
-18.63
-12.05
-2.56
8.55
19.73
29.40
36.31
39.80
39.82
36.89
31.70
24.97
17.26
9.07
1.08
-5.86
-10.92
-13.56
-13.87
-12.60
-10.86
-9.66
-9.56
-10.50
-11.94
-13.28
-14.23
-14.91
-15.72
-17.02
-18.89
-21.04
-23.13
-25.10
-27.41
-30.83
-35.94
-42.44
-48.89
-53.07
-52.77
-46.81
-35.51
-20.58
-4.34
11.09
24.37
35.02
43.11
49.02
53.29
56.53
59.34
62.17
65.08
67.89
70.36
72.46
74.35
76.14
77.44
77.20
74.04
66.93
55.85
41.86
26.82
12.74
1.32
-6.27
-9.43
-8.12
-3.07
4.10
10.90
14.64
13.31
6.40
-4.84
-17.86
-29.80
-38.53
-43.22
-44.21
-42.53
-39.21
-34.89
-29.82
-24.02
-17.68
-11.29
-5.50
-0.89
2.25
3.86
4.03
2.85
0.34
-3.46
-8.41
-14.14
-20.02
-25.42
-29.83
-33.14
-35.57
-37.53
-39.24
-40.56
-40.94
-39.78
-36.86
-32.63
-28.18
-24.84
-23.59
-24.57
-27.05
-29.75
-31.41
-31.28
-29.25
-25.80
-21.63
-17.43
-13.79
-11.10
-9.58
-9.27
-10.02
-11.45
-12.99
-13.97
-13.70
-11.69
-7.70
-1.87
5.27
12.77
19.56
24.56
27.11
27.11
25.15
22.28
19.65
18.07
17.77
18.40
19.31
19.84
19.62
18.69
17.39
16.17
15.39
15.25
15.88
17.33
19.64
22.64
25.97
29.06
31.43
33.01
34.24
36.08
39.49
44.88
51.73
58.40
62.68
62.46
56.55
45.14
29.75
12.87
-2.84
-15.18
-22.93
-26.09
-25.60
-22.95
-19.61
-16.66
-14.56
-13.27
-12.58
-12.32
-12.60
-13.68
-15.80
-18.97
-22.84
-26.72
-29.64
-30.59
-28.74
-23.68
-15.55
-5.05
6.70
18.47
29.25
38.32
45.34
50.12
52.46
52.21
49.42
44.64
38.98
33.82
30.21
28.41
27.76
26.99
24.98
21.16
15.76
9.49
2.98
-3.56
-10.25
-17.34
-24.83
-32.31
-39.14
-44.66
-48.47
-50.53
-51.19
-51.02
-50.66
-50.58
-50.73
-50.51
-48.86
-44.70
-37.44
-27.28
-15.31
-3.02
8.11
17.25
24.29
29.70
34.01
37.47
39.84
40.64
39.49
36.43
32.04
27.13
22.41
18.14
14.17
10.16
5.99
1.88
-1.73
-4.39
-5.98
-6.83
-7.43
-8.27
-9.51
-11.01
-12.53
-13.90
-15.17
-16.52
-18.10
-19.76
-21.08
-21.50
-20.59
-18.35
-15.26
-12.06
-9.45
-7.78
-6.96
-6.61
-6.30
-5.79
-5.02
-4.00
-2.75
-1.31
0.13
1.24
1.59
0.91
-0.74
-2.89
-4.98
-6.57
-7.69
-8.71
-10.15
-12.30
-15.01
-17.77
-19.98
-21.13
-21.00
-19.61
-17.21
-14.17
-11.01
-8.37
-6.82
-6.72
-8.02
-10.19
-12.36
-13.59
-13.13
-10.62
-6.18
-0.33
6.17
12.53
18.06
22.30
25.00
26.19
26.10
25.15
23.82
22.57
21.67
21.23
21.14
21.22
21.20
20.83
19.93
18.44
16.43
14.01
11.30
8.31
4.99
1.32
-2.52
-6.10
-8.87
-10.30
-10.26
-9.08
-7.49
-6.31
-6.23
-7.52
-10.01
-13.18
-16.19
-18.15
-18.29
-16.22
-11.95
-6.09
0.38
6.31
10.75
13.12
13.23
11.25
7.60
2.96
-1.87
-6.17
-9.45
-11.55
-12.62
-12.96
-12.83
-12.41
-11.72
-10.78
-9.75
-8.79
-7.93
-6.86
-5.15
-2.41
1.31
5.78
10.41
14.39
16.95
17.63
16.53
14.20
11.58
9.90
10.98
16.08
25.18
36.83
48.76
58.77
65.31
67.82
66.65
63.74
60.93
59.11
58.02
56.93
55.41
53.44
51.39
49.87
50.66
54.99
62.60
71.98
81.46
90.12
97.65
103.74
99.77
80.15
45.54
2.99
-38.61
-72.59
-95.55
-107.11
-109.31
-105.64
-98.48
-89.49
-80.13
-71.30
-63.26
-55.87
-49.32
-44.20
-41.29
-40.68
-41.45
-43.71
-47.62
-53.11
-59.62
-66.49
-72.83
-77.54
-79.11
-76.93
-72.68
-68.48
-65.72
-63.97
-61.50
-55.90
-45.36
-29.58
-6.33
19.24
39.20
47.61
44.02
32.16
17.22
3.38
-7.16
-13.87
-17.54
-18.06
-15.72
-9.46
0.23
11.55
22.36
30.96
36.59
38.94
39.03
38.49
38.91
40.94
43.97
47.30
50.04
51.07
48.85
42.47
31.78
17.25
-0.45
-20.33
-39.77
-54.83
-62.36
-62.32
-57.09
-49.60
-41.84
-34.73
-28.19
-21.70
-15.03
-8.65
-3.50
-0.22
1.11
0.78
-0.77
-2.88
-4.63
-4.83
-2.40
3.33
12.01
22.99
34.54
44.50
50.98
52.94
50.54
44.90
37.62
30.33
24.18
19.54
16.13
13.43
10.80
7.92
4.71
1.16
-2.82
-7.38
-12.82
-19.37
-25.49
-30.24
-33.06
-34.06
-34.04
-34.09
-35.14
-37.48
-40.50
-42.69
-42.38
-37.88
-28.16
-13.25
5.56
25.77
44.06
57.08
62.53
59.68
49.77
35.58
20.47
7.31
-2.38
-8.52
-12.18
-14.40
-15.97
-17.03
-17.43
-17.04
-16.07
-15.26
-15.63
-18.03
-22.33
-27.62
-32.57
-36.19
-38.26
-39.33
-40.56
-42.98
-46.72
-50.38
-51.74
-48.79
-40.67
-27.83
-11.68
5.96
24.32
40.92
52.99
59.39
60.88
58.78
54.03
46.98
38.44
27.17
12.54
-4.70
-22.72
-39.41
-53.12
-62.77
-66.71
-64.30
-56.30
-45.13
-34.94
-31.07
-38.42
-59.29
-91.75
-129.78
-165.61
-192.72
-207.78
-211.09
-205.21
-192.99
-176.10
-154.81
-129.02
-99.45
-67.90
-36.49
-6.50
22.08
49.90
77.06
102.09
121.94
133.07
133.29
123.07
105.91
87.07
71.60
62.44
59.71
61.00
62.73
61.69
56.05
45.69
31.76
15.98
0.04
-14.72
-27.48
-37.94
-46.31
-53.25
-59.58
-65.93
-72.24
-77.56
-80.19
-78.35
-70.94
-58.18
-41.54
-23.27
-5.48
10.38
23.72
34.41
42.32
47.14
48.60
47.07
43.88
41.16
41.08
44.86
52.22
61.51
70.43
77.02
80.27
80.22
77.66
73.58
68.73
63.54
58.13
52.51
46.70
40.82
35.16
30.28
26.98
26.10
28.11
32.85
39.46
46.62
53.05
57.85
60.68
61.45
60.15
56.52
50.18
40.81
28.46
13.78
-2.18
-18.26
-33.55
-47.57
-60.26
-71.69
-81.76
-90.12
-96.25
-99.86
-101.13
-100.90
-100.29
-100.35
-101.65
-104.18
-107.38
-110.46
-112.59
-113.05
-111.24
-106.71
-99.10
-88.15
-73.71
-55.60
-33.78
-8.60
19.02
47.41
74.31
97.49
115.21
126.79
132.60
133.94
132.67
130.89
130.52
132.93
138.33
145.52
152.05
154.98
151.99
142.37
127.37
109.72
92.63
78.59
68.53
61.55
55.12
45.99
31.36
10.12
-16.26
-43.73
-66.69
-79.88
-80.11
-67.41
-44.84
-17.26
10.25
33.56
49.99
58.17
57.72
49.11
33.66
13.61
-8.14
-28.55
-45.08
-56.21
-61.53
-61.44
-56.73
-48.25
-36.84
-23.49
-9.45
3.76
14.71
22.39
26.51
27.48
26.10
23.14
19.11
14.26
8.74
3.01
-2.24
-6.13
-7.86
-7.03
-3.60
2.09
9.47
17.79
26.16
33.56
38.90
41.32
40.38
36.44
30.48
23.83
17.65
12.59
8.68
5.47
2.48
-0.54
-3.47
-5.98
-7.82
-9.00
-9.93
-11.19
-13.28
-16.21
-19.62
-22.73
-24.85
-25.54
-24.80
-23.04
-20.76
-18.37
-15.89
-13.01
-9.23
-4.05
2.63
10.46
18.59
25.89
31.30
34.12
34.18
31.83
27.79
22.93
18.01
13.67
10.38
8.43
7.91
8.61
10.06
11.58
12.49
12.39
11.25
9.49
7.81
6.85
6.98
8.01
9.28
9.85
8.96
6.31
2.29
-2.19
-5.88
-7.52
-6.11
-1.18
7.01
17.52
28.79
39.05
46.78
51.00
51.59
49.05
44.32
38.35
32.00
25.93
20.72
16.83
14.50
13.64
13.65
13.64
12.62
9.76
4.71
-2.39
-10.92
-19.98
-28.56
-35.78
-41.05
-44.21
-45.53
-45.56
-45.04
-44.45
-43.92
-43.12
-41.47
-38.38
-33.53
-27.06
-19.51
-11.67
-4.39
1.60
5.78
7.91
8.00
6.41
3.75
0.86
-1.48
-2.67
-2.41
-0.84
1.67
4.55
7.12
8.69
8.57
6.22
1.43
-5.45
-13.42
-20.98
-26.54
-29.09
-28.52
-25.74
-22.26
-19.54
-18.33
-18.40
-18.72
-17.89
-14.70
-8.58
0.30
11.14
22.72
33.76
43.16
50.24
54.96
57.84
59.78
61.58
63.63
65.65
66.83
66.23
63.23
57.79
50.45
42.02
33.23
24.55
16.15
8.15
0.73
-5.83
-11.32
-15.76
-19.37
-22.56
-25.64
-28.62
-31.20
-32.84
-33.07
-31.70
-28.91
-25.08
-20.62
-15.84
-10.92
-6.02
-1.48
2.31
4.90
6.06
5.76
4.18
1.56
-1.87
-5.90
-10.24
-14.51
-18.20
-20.77
-21.87
-21.36
-19.43
-16.53
-13.31
-10.42
-8.45
-7.68
-8.05
-9.11
-10.15
-10.46
-9.58
-7.51
-4.72
-1.86
0.43
1.88
2.79
3.91
6.28
10.84
18.04
27.60
38.45
48.95
57.31
62.14
62.86
59.89
54.40
47.94
41.80
36.74
32.88
29.88
27.27
24.64
21.83
18.88
15.96
13.25
10.79
8.37
5.58
1.89
-3.30
-10.40
-19.68
-31.07
-44.11
-57.81
-70.75
-81.28
-87.96
-89.99
-87.41
-80.99
-71.82
-60.99
-49.37
-37.72
-26.85
-17.64
-11.04
-7.65
-7.56
-10.11
-14.09
-18.03
-20.65
-21.23
-19.78
-17.03
-14.04
-11.72
-10.41
-9.81
-9.22
-8.10
-6.42
-4.73
-3.82
-4.20
-5.81
-8.03
-10.03
-11.31
-11.92
-12.48
-13.83
-16.57
-20.64
-25.18
-28.71
-29.56
-26.59
-19.68
-10.02
0.37
9.29
15.33
18.30
19.07
18.97
19.03
19.60
20.47
21.45
22.73
25.00
28.96
34.73
41.56
48.13
53.08
55.61
55.52
52.80
47.01
37.20
22.37
2.45
-21.01
-44.92
-65.62
-80.18
-87.49
-88.37
-84.80
-78.84
-71.74
-63.82
-54.97
-45.27
-35.29
-25.89
-17.82
-11.36
-6.31
-2.29
0.89
3.13
4.11
3.60
1.72
-1.02
-3.85
-6.11
-7.38
-7.61
-7.06
-6.20
-5.49
-5.24
-5.54
-6.23
-6.97
-7.42
-7.43
-7.08
-6.70
-6.59
-6.95
-7.75
-8.82
-10.00
-11.30
-12.89
-14.92
-17.41
-20.01
-22.09
-22.87
-21.68
-18.26
-12.78
-5.92
1.42
8.36
14.26
18.85
22.32
25.08
27.63
30.37
33.44
36.71
39.84
42.38
43.94
44.27
43.35
41.36
38.64
35.53
32.33
29.17
26.05
22.81
19.30
15.40
11.16
6.84
2.88
-0.19
-1.90
-2.08
-0.93
0.98
2.88
4.19
4.68
4.57
4.36
4.45
4.91
5.48
5.57
4.68
2.61
-0.35
-3.57
-6.23
-7.68
-7.63
-6.14
-3.62
-0.57
2.59
5.61
8.37
10.77
12.67
13.84
14.10
13.41
11.91
9.84
7.36
4.57
1.50
-1.73
-4.88
-7.56
-9.43
-10.29
-10.18
-9.42
-8.32
-7.18
-6.09
-5.04
-3.94
-2.70
-1.27
0.39
2.31
4.69
7.72
11.57
16.11
20.83
24.81
27.05
26.80
23.90
18.80
12.30
5.23
-1.88
-8.83
-15.52
-21.78
-27.25
-31.61
-34.73
-36.78
-38.03
-38.51
-37.89
-35.62
-31.33
-25.16
-17.88
-10.59
-4.30
0.41
3.38
4.68
4.37
2.44
-1.00
-5.58
-10.56
-15.01
-18.13
-19.47
-19.08
-17.36
-14.93
-12.38
-10.24
-8.78
-8.07
-7.93
-8.09
-8.29
-8.38
-8.41
-8.49
-8.73
-9.19
-9.79
-10.34
-10.54
-9.99
-8.41
-5.70
-2.04
2.15
6.37
10.19
13.41
16.05
18.23
20.03
21.36
21.96
21.54
19.96
17.34
14.14
11.06
8.88
8.23
9.41
12.25
16.13
20.23
23.70
25.82
26.13
24.47
20.95
16.00
10.23
4.32
-1.04
-5.45
-8.83
-11.50
-13.90
-16.50
-19.52
-22.87
-26.18
-28.99
-30.91
-31.85
-32.07
-32.08
-32.45
-33.58
-35.57
-38.09
-40.44
-41.72
-41.06
-37.92
-32.38
-25.08
-17.09
-9.51
-3.07
2.10
6.38
10.42
14.76
19.53
24.51
29.21
33.12
35.75
36.69
35.54
32.01
26.05
18.03
8.79
-0.65
-9.30
-16.60
-22.49
-27.14
-30.62
-32.67
-32.66
-29.76
-23.22
-12.43
2.93
22.81
46.63
73.01
99.73
123.95
142.93
154.67
158.45
154.85
145.27
131.42
114.87
97.05
79.33
63.20
50.10
40.93
35.72
33.41
32.29
30.60
27.20
21.83
14.97
7.32
-0.65
-8.81
-17.21
-25.75
-34.01
-41.33
-47.12
-51.07
-53.21
-53.78
-53.04
-51.09
-47.99
-43.86
-38.89
-33.26
-27.03
-20.10
-12.45
-4.39
3.23
9.06
11.65
9.98
3.92
-5.61
-16.87
-27.87
-36.87
-42.79
-45.33
-44.83
-42.10
-38.17
-34.19
-31.27
-30.39
-32.21
-36.81
-43.62
-51.35
-58.29
-62.74
-63.46
-60.12
-53.28
-44.24
-34.52
-25.46
-17.81
-11.64
-6.52
-1.67
3.59
9.71
16.63
23.83
30.30
34.85
36.34
33.98
27.59
17.77
5.76
-6.67
-17.67
-25.71
-29.87
-30.06
-27.07
-22.37
-17.65
-14.47
-13.85
-16.08
-20.77
-27.00
-33.54
-39.19
-43.04
-44.62
-43.98
-41.54
-37.93
-33.88
-30.10
-27.20
-25.54
-25.13
-25.55
-25.99
-25.51
-23.32
-19.10
-13.13
-6.17
0.81
6.97
11.74
14.81
16.02
15.21
12.31
7.56
1.72
-3.87
-7.60
-8.16
-5.10
0.75
7.65
13.55
16.92
17.26
15.05
11.25
6.83
2.44
-1.55
-4.68
-6.30
-5.62
-2.10
4.25
12.66
21.82
30.23
36.63
40.31
41.28
40.21
38.20
36.45
35.83
36.61
38.32
40.01
40.60
39.32
35.93
30.75
24.47
17.92
12.01
7.52
5.02
4.63
5.87
7.69
8.73
7.79
4.27
-1.65
-9.13
-17.15
-24.86
-31.85
-37.99
-43.20
-47.28
-49.89
-50.74
-49.85
-47.67
-44.92
-42.38
-40.58
-39.70
-39.53
-39.67
-39.64
-38.84
-36.66
-32.50
-26.02
-17.40
-7.38
2.88
12.23
19.83
25.39
28.99
30.83
30.98
29.37
26.06
21.41
16.18
11.28
7.44
4.99
3.79
3.42
3.38
3.21
2.50
0.96
-1.66
-5.43
-10.12
-15.24
-20.19
-24.38
-27.49
-29.47
-30.41
-30.53
-29.98
-28.86
-27.30
-25.42
-23.41
-21.43
-19.59
-17.92
-16.44
-15.21
-14.36
-14.16
-14.73
-16.03
-17.59
-18.65
-18.34
-16.01
-11.50
-5.24
1.87
8.91
15.24
20.69
25.41
29.60
33.08
35.35
35.77
34.02
30.36
25.68
21.09
17.55
15.48
14.73
14.90
15.54
16.48
17.75
19.45
21.54
23.86
26.26
28.67
31.19
33.89
36.77
39.55
41.85
43.30
43.70
42.96
41.01
37.61
32.32
24.73
14.80
3.10
-9.15
-20.31
-28.76
-33.24
-33.07
-28.34
-19.84
-9.05
2.09
11.56
17.77
19.92
18.25
13.78
7.99
2.22
-2.63
-6.21
-8.49
-9.60
-9.64
-8.61
-6.53
-3.41
0.75
6.05
12.62
20.56
29.62
39.00
47.34
53.00
54.56
51.42
44.01
33.76
22.56
12.24
4.05
-1.52
-4.71
-6.13
-6.63
-6.95
-7.61
-8.82
-10.50
-12.33
-13.93
-15.06
-15.69
-16.05
-16.54
-17.53
-19.22
-21.51
-24.02
-26.26
-27.79
-28.28
-27.59
-25.65
-22.42
-17.99
-12.69
-7.10
-1.99
2.03
4.76
6.43
7.63
8.93
10.51
12.04
12.90
12.51
10.70
7.81
4.48
1.50
-0.39
-0.59
1.26
5.35
11.65
19.81
29.24
38.83
47.41
54.06
58.15
59.45
58.19
55.07
51.30
48.38
47.19
48.33
51.87
57.30
63.56
69.41
73.86
76.46
77.25
75.70
71.62
65.20
56.79
46.57
34.19
18.85
-0.32
-23.64
-51.21
-81.12
-109.53
-132.03
-145.56
-149.99
-148.25
-145.19
-138.91
-129.25
-116.99
-103.19
-88.06
-71.31
-53.34
-35.34
-18.46
-3.26
9.67
20.63
30.25
38.92
46.52
52.54
56.82
60.07
63.20
66.51
70.17
74.09
77.36
79.79
81.14
81.71
82.48
84.20
87.17
91.34
96.34
101.53
106.35
110.39
113.81
117.42
121.50
126.18
131.26
136.09
139.57
140.33
136.71
126.86
114.50
101.96
91.77
86.05
85.65
89.72
95.85
100.85
102.09
98.45
89.75
77.36
63.51
50.54
40.45
34.60
33.27
35.56
39.67
42.82
42.91
39.10
32.03
23.22
14.38
6.68
0.62
-3.71
-6.70
-9.24
-11.66
-13.81
-15.55
-17.33
-19.90
-23.88
-29.42
-36.43
-45.14
-55.35
-66.28
-77.24
-87.97
-98.53
-108.74
-118.03
-125.60
-132.36
-138.42
-142.62
-143.65
-141.14
-135.54
-127.51
-117.69
-106.77
-100.41
-101.23
-106.98
-113.55
-118.80
-122.71
-126.05
-129.51
-133.38
-147.30
-174.16
-207.01
-236.15
-257.30
-271.67
-282.69
-293.42
-305.58
-334.94
-386.05
-447.54
-503.56
-546.56
-577.83
-602.47
-625.75
-651.29
-700.76
-780.01
-872.10
-952.03
-1004.24
-1024.67
-1015.93
-983.89
-808.67
-477.23
-89.35
239.32
464.79
599.95
673.51
709.90
725.33
730.20
710.61
663.55
604.49
554.08
521.27
504.08
496.55
493.38
492.43
478.16
446.64
409.64
382.77
372.18
374.66
383.59
388.03
382.08
354.66
305.22
245.48
190.31
148.00
119.40
101.31
89.48
81.20
69.92
53.12
33.51
15.49
1.26
-9.41
-17.73
-25.02
-31.50
-38.72
-46.77
-54.17
-59.61
-63.45
-67.47
-73.38
-81.79
-91.39
-99.96
-105.41
-106.56
-103.35
-96.16
-85.16
-70.18
-51.33
-29.53
-7.15
12.66
27.38
36.19
40.51
42.94
45.78
49.72
53.72
55.91
54.89
50.69
44.64
38.45
33.11
28.37
23.07
16.05
7.13
-2.53
-10.82
-15.70
-16.26
-13.35
-9.50
-7.85
-11.03
-19.93
-33.35
-48.50
-61.96
-70.81
-73.35
-69.34
-59.75
-46.51
-31.96
-18.42
-7.67
-0.39
3.97
7.03
10.55
15.49
21.35
26.30
28.04
24.96
16.95
5.51
-6.95
-18.11
-26.57
-32.19
-35.80
-38.56
-41.48
-45.08
-49.40
-54.34
-59.68
-65.25
-70.80
-75.92
-80.09
-82.81
-83.76
-82.85
-80.14
-75.39
-68.01
-57.24
-42.73
-25.00
-5.59
13.46
30.29
43.93
54.30
61.86
67.00
69.68
69.67
66.83
61.66
55.26
49.03
44.12
41.07
39.65
39.10
38.39
36.33
31.85
24.04
12.70
-1.23
-15.29
-25.81
-29.13
-23.23
-9.13
8.83
24.15
30.53
24.34
6.12
-19.68
-46.64
-68.84
-82.80
-88.05
-86.21
-79.65
-70.25
-58.93
-45.97
-31.77
-17.39
-4.52
5.05
10.19
11.04
9.04
6.33
4.95
5.99
9.35
13.80
17.83
20.40
21.56
22.35
24.18
28.05
33.93
40.80
47.11
51.44
53.03
51.78
48.05
42.23
34.77
26.20
17.43
9.87
5.27
5.18
10.37
20.40
33.70
47.97
60.93
70.92
77.00
78.81
76.17
68.87
56.91
40.83
22.06
2.74
-14.72
-28.45
-37.51
-41.99
-42.70
-40.62
-36.18
-29.82
-22.31
-14.87
-8.77
-5.06
-4.17
-5.96
-9.70
-14.09
-18.10
-21.40
-24.21
-26.70
-28.50
-28.61
-25.71
-18.60
-5.72
13.28
37.11
63.28
89.15
112.51
131.68
145.34
152.48
155.11
154.82
151.59
144.44
133.50
120.79
109.45
102.27
100.73
110.00
131.76
162.30
194.29
221.60
241.80
255.37
263.93
269.13
280.78
304.84
339.09
374.96
404.20
423.07
431.81
432.75
429.04
435.15
460.85
504.88
556.93
606.04
646.12
675.53
694.98
635.49
468.27
223.16
-30.99
-239.91
-386.86
-479.56
-533.47
-562.94
-578.44
-575.21
-549.08
-505.43
-456.43
-413.71
-383.31
-366.19
-360.41
-362.38
-359.24
-342.00
-311.15
-273.08
-235.77
-204.01
-179.31
-161.14
-147.75
-131.28
-105.88
-71.09
-31.34
7.25
39.57
61.73
71.06
66.69
52.76
34.42
15.37
-3.01
-20.99
-39.13
-57.89
-77.34
-97.05
-115.25
-130.69
-143.35
-154.28
-164.80
-175.28
-185.14
-193.00
-197.12
-196.13
-189.65
-178.72
-165.63
-153.41
-144.72
-140.96
-141.85
-145.76
-150.37
-153.48
-153.51
-149.50
-141.07
-128.11
-110.89
-90.10
-66.93
-42.92
-19.71
1.26
19.02
33.08
43.48
50.59
55.01
57.43
58.51
58.93
59.47
61.13
64.89
71.61
81.48
93.76
106.72
117.83
124.32
123.67
114.21
95.36
67.86
33.74
-3.87
-41.18
-74.35
-100.22
-117.06
-124.66
-123.92
-116.03
-101.51
-80.00
-50.66
-13.29
30.62
77.53
122.58
160.85
188.71
204.50
208.18
200.51
182.28
154.02
116.34
70.66
19.32
-34.50
-87.20
-135.12
-174.39
-200.56
-208.50
-193.57
-153.73
-91.87
-16.93
57.78
118.40
155.32
166.21
156.16
134.81
112.40
96.67
91.79
99.09
118.14
147.05
181.93
216.41
242.31
251.90
240.58
208.73
161.28
105.42
47.86
-7.16
-57.99
-104.39
-145.84
-180.68
-206.38
-220.64
-222.63
-213.70
-196.92
-176.20
-155.13
-136.20
-120.39
-107.50
-96.58
-86.59
-76.86
-67.27
-58.15
-50.05
-43.52
-38.91
-36.32
-35.56
-36.09
-36.97
-37.06
-35.23
-30.75
-23.43
-13.60
-1.76
11.70
26.46
41.96
57.05
70.04
79.35
84.32
85.79
86.01
87.61
92.39
100.46
110.16
118.95
124.41
125.21
121.24
113.18
102.01
88.49
73.07
55.93
37.20
16.97
-4.86
-28.42
-53.85
-80.92
-108.74
-135.57
-159.15
-177.29
-188.66
-193.46
-193.37
-191.14
-189.46
-190.14
-193.51
-198.36
-202.37
-202.68
-196.66
-182.65
-160.60
-132.14
-100.23
-68.43
-40.09
-17.78
-3.06
3.64
2.95
-3.58
-13.77
-25.42
-37.22
-49.09
-62.24
-78.26
-98.06
-120.98
-144.71
-166.01
-181.53
-188.73
-186.19
-173.74
-152.44
-124.49
-93.01
-61.57
-33.55
-11.19
4.64
14.68
20.69
24.67
28.05
31.23
33.56
33.95
31.61
26.56
19.74
12.62
6.47
1.85
-1.56
-4.56
-7.94
-11.95
-16.41
-20.85
-24.96
-28.73
-32.41
-36.22
-40.08
-43.44
-45.34
-44.63
-40.32
-31.90
-19.49
-3.65
14.77
34.87
55.79
76.45
95.40
110.75
120.43
122.88
117.67
106.06
90.69
74.90
61.56
52.23
46.70
43.54
40.89
37.45
32.91
27.82
23.18
19.67
17.47
16.31
15.70
15.26
14.70
13.79
12.10
9.32
5.38
0.93
-2.69
-3.71
-0.59
7.42
20.04
36.02
53.57
70.82
86.23
98.66
107.51
112.46
113.49
110.71
104.35
94.97
83.48
71.30
60.08
51.32
45.93
43.78
43.82
44.46
44.36
42.94
40.51
37.85
35.54
33.47
30.81
26.52
19.97
11.45
2.06
-6.66
-13.33
-17.21
-18.13
-16.43
-12.56
-7.07
-0.58
6.02
11.66
15.43
16.85
16.24
14.55
13.00
12.54
13.56
15.81
18.73
21.73
24.38
26.51
27.99
28.71
28.60
27.74
26.40
24.91
23.51
22.05
20.03
16.70
11.41
4.01
-4.97
-14.15
-21.72
-25.80
-25.19
-19.71
-10.29
1.39
13.46
24.43
33.41
39.99
44.01
45.27
43.63
39.22
32.70
25.21
18.18
12.83
9.82
9.15
10.28
12.42
14.75
16.94
18.60
19.18
18.08
14.93
9.89
3.60
-2.97
-8.83
-12.88
-14.53
-13.79
-11.11
-6.99
-1.73
4.50
11.59
19.31
28.12
38.06
48.45
58.20
66.31
72.33
76.26
78.42
79.21
81.28
86.38
94.26
103.01
110.65
116.30
120.15
122.94
125.48
133.01
148.69
171.57
197.27
221.15
240.54
254.49
263.01
266.48
272.98
288.26
312.52
341.14
369.16
394.31
416.45
435.86
452.35
474.69
507.90
549.33
590.04
620.94
637.18
637.96
624.48
540.01
363.52
121.29
-127.27
-332.05
-474.68
-560.52
-603.92
-619.95
-621.18
-607.55
-579.54
-542.93
-506.12
-475.35
-450.80
-428.16
-403.48
-376.24
-342.67
-304.17
-267.71
-242.60
-235.48
-246.36
-269.36
-293.00
-305.34
-295.45
-262.65
-215.17
-164.18
-118.42
-84.32
-59.55
-42.00
-30.76
-23.20
-16.96
-10.48
-0.83
12.81
30.26
50.49
70.46
86.19
94.83
94.98
87.24
73.92
58.21
44.04
35.59
35.25
43.10
56.67
71.49
82.62
86.09
79.78
64.38
43.12
20.15
-0.65
-16.56
-26.42
-30.46
-29.87
-26.61
-22.41
-18.26
-14.35
-10.39
-6.05
-1.56
2.35
4.73
4.95
2.96
-0.83
-6.12
-12.85
-21.07
-30.51
-40.16
-48.38
-53.38
-53.84
-49.39
-40.70
-29.29
-17.11
-6.27
1.37
4.47
2.61
-3.54
-12.40
-21.93
-30.33
-36.71
-41.25
-44.81
-48.32
-52.08
-55.51
-57.55
-57.11
-53.74
-47.87
-40.62
-33.39
-27.42
-23.44
-21.67
-21.84
-23.26
-25.04
-26.22
-26.16
-24.71
-22.31
-19.79
-18.15
-18.27
-20.73
-25.77
-33.31
-42.97
-54.10
-65.96
-77.77
-88.91
-98.75
-106.62
-111.66
-112.94
-109.74
-101.91
-90.10
-75.68
-60.36
-45.67
-32.60
-21.44
-11.99
-3.82
3.40
9.71
14.86
18.50
20.44
20.95
20.67
20.51
21.23
23.05
25.60
28.01
29.47
29.57
28.47
26.66
24.67
22.75
20.78
18.46
15.61
12.15
8.22
3.87
-0.92
-6.14
-11.50
-16.13
-18.57
-17.12
-10.57
1.16
16.74
33.69
49.14
60.74
67.33
69.10
67.18
62.99
57.69
51.92
45.95
39.98
34.42
29.77
26.44
24.26
22.43
19.75
15.14
8.11
-0.87
-10.64
-19.74
-27.05
-32.21
-35.54
-37.77
-39.53
-41.12
-42.51
-43.66
-44.75
-46.11
-48.03
-50.41
-52.41
-52.71
-49.76
-42.49
-30.75
-15.49
1.48
18.01
32.18
42.79
49.47
52.61
52.97
51.42
48.69
45.49
42.42
40.09
38.81
38.42
38.32
37.66
35.84
32.80
29.04
25.30
22.11
19.48
17.02
14.32
11.24
8.06
5.19
2.88
1.04
-0.65
-2.40
-4.14
-5.52
-6.29
-6.58
-6.91
-7.85
-9.49
-11.21
-11.84
-10.43
-6.92
-2.40
1.29
2.60
1.00
-2.73
-7.04
-10.65
-13.36
-16.20
-20.76
-28.24
-38.66
-50.74
-62.44
-71.73
-77.32
-78.97
-77.34
-73.54
-68.94
-64.88
-62.53
-62.72
-65.69
-70.76
-76.46
-80.95
-82.62
-80.94
-76.69
-71.64
-67.86
-66.64
-67.82
-69.74
-69.62
-64.47
-52.21
-33.13
-9.93
13.01
31.09
41.03
41.77
35.00
24.56
15.21
10.48
11.88
18.57
28.44
39.12
48.62
56.24
62.21
67.09
69.98
69.17
63.21
52.39
38.71
23.58
8.27
-6.29
-18.13
-26.86
-31.80
-32.04
-26.74
-16.96
-8.84
-8.79
-19.32
-34.97
-49.92
-58.38
-57.24
-46.41
-29.37
-15.80
-13.63
-24.63
-40.89
-57.90
-73.21
-86.53
-97.30
-105.28
-116.38
-135.96
-165.42
-197.60
-231.27
-266.84
-305.04
-343.73
-344.88
-286.20
-177.55
-83.98
-16.71
27.55
63.04
94.00
123.55
154.24
181.88
201.73
213.58
219.53
214.88
198.60
174.66
150.43
131.35
114.64
96.45
76.53
61.50
55.22
59.03
70.79
86.63
101.60
108.16
102.40
86.24
67.60
50.00
36.55
29.44
29.71
36.99
47.49
58.55
70.37
84.91
101.95
120.53
139.27
155.52
166.30
167.97
160.98
150.94
144.17
143.87
140.75
126.51
96.54
61.69
22.44
-21.81
-71.27
-122.62
-172.08
-214.43
-244.81
-261.06
-263.27
-246.72
-220.86
-183.04
-132.35
-71.48
-4.04
64.96
129.24
183.31
223.67
250.59
268.34
281.17
275.81
246.55
198.10
140.25
79.74
19.06
-35.95
-83.50
-119.16
-138.61
-138.03
-117.94
-82.18
-39.89
-1.65
24.27
34.08
28.69
11.29
-12.23
-36.29
-57.23
-72.92
-82.06
-83.95
-78.89
-67.55
-51.46
-33.80
-18.41
-7.74
-1.37
2.35
5.72
8.52
10.76
12.55
14.88
19.28
25.04
31.91
38.84
44.10
42.75
32.43
14.03
-8.74
-29.81
-48.78
-66.68
-85.39
-105.95
-128.37
-151.24
-172.65
-190.49
-202.06
-204.30
-193.55
-167.67
-127.22
-75.53
-17.88
39.02
88.53
125.86
149.10
159.70
160.80
155.76
148.04
140.41
134.17
129.13
124.49
119.31
112.89
104.19
91.97
76.69
60.63
47.01
39.10
39.62
50.15
70.70
99.18
124.06
134.37
125.06
99.04
63.14
23.57
-15.39
-50.69
-80.00
-101.69
-115.15
-119.33
-114.51
-102.90
-87.87
-72.64
-59.36
-48.80
-40.87
-34.10
-26.72
-18.18
-9.23
-0.94
6.38
13.22
20.36
27.93
35.72
42.91
48.25
50.58
49.36
44.66
36.63
25.24
10.34
-7.62
-27.49
-47.91
-67.75
-86.56
-104.58
-122.20
-139.26
-154.79
-166.93
-173.46
-172.23
-161.39
-140.03
-108.72
-69.72
-26.77
15.64
53.10
82.23
101.70
112.54
116.95
116.94
113.60
107.15
97.34
83.68
65.71
43.92
20.72
-0.23
-14.90
-19.76
-12.32
8.12
40.06
76.62
106.84
121.11
116.47
96.42
66.69
32.45
-2.34
-34.75
-62.42
-85.16
-101.51
-110.01
-110.43
-104.00
-92.77
-78.95
-64.50
-50.22
-36.70
-23.36
-9.30
5.84
21.67
37.40
52.15
64.94
74.62
79.97
80.27
75.03
63.95
47.25
26.07
2.44
-21.02
-41.57
-56.94
-65.51
-67.09
-63.09
-55.99
-48.58
-43.08
-40.55
-40.72
-42.33
-43.53
-42.48
-37.74
-28.41
-14.53
2.56
20.50
36.67
49.19
57.43
62.44
66.42
71.84
79.95
89.78
98.32
101.74
96.72
81.37
56.30
24.81
-7.46
-34.04
-49.63
-51.23
-38.37
-12.92
21.22
56.47
82.25
90.34
79.83
55.99
25.82
-4.84
-30.78
-51.88
-68.12
-79.35
-85.30
-86.30
-83.85
-79.33
-74.50
-70.42
-67.32
-63.93
-58.25
-48.14
-32.26
-10.98
13.80
39.33
62.85
81.91
95.00
101.18
100.02
91.58
76.35
55.56
31.33
6.54
-15.60
-31.97
-40.72
-41.91
-37.44
-30.44
-24.05
-20.23
-19.55
-20.75
-21.29
-18.97
-13.01
-4.32
5.32
14.06
20.91
25.17
27.23
28.53
30.39
33.06
35.45
35.55
30.79
19.12
-1.46
-30.52
-64.43
-97.24
-122.53
-135.14
-132.01
-113.17
-76.18
-27.09
21.10
55.86
71.72
70.20
56.06
36.42
14.55
-6.81
-26.04
-41.42
-51.20
-54.58
-51.06
-42.35
-30.95
-19.35
-8.89
-0.57
5.95
12.37
20.68
31.97
45.81
60.83
75.08
86.89
94.38
96.24
91.93
81.58
65.76
45.34
21.86
-2.83
-26.77
-48.73
-67.88
-83.52
-94.75
-100.65
-100.72
-95.04
-84.31
-69.63
-52.42
-33.99
-15.48
2.30
18.62
32.54
43.04
49.35
51.36
49.47
44.62
37.96
31.04
25.47
22.25
21.27
21.29
20.34
16.08
7.04
-6.93
-23.67
-39.14
-48.92
-49.63
-39.76
-19.82
7.63
38.94
66.55
82.66
83.93
72.58
53.70
32.48
13.94
-1.31
-13.40
-23.02
-30.80
-37.33
-43.51
-49.67
-56.17
-62.67
-68.25
-71.26
-70.16
-63.74
-51.41
-33.77
-12.41
10.55
33.23
54.02
71.88
85.73
94.58
97.50
93.70
82.94
65.69
43.56
18.85
-5.88
-28.67
-48.47
-65.25
-79.81
-92.97
-105.53
-117.05
-126.02
-130.08
-126.92
-115.06
-94.49
-66.86
-34.72
-2.00
27.94
52.59
70.48
81.12
84.84
82.55
75.70
66.57
56.13
45.46
34.85
23.88
11.96
-0.99
-13.92
-24.61
-29.53
-27.12
-16.35
2.04
25.61
50.87
74.08
91.93
97.30
95.15
85.16
68.83
48.30
25.93
4.08
-15.14
-30.16
-40.17
-44.54
-45.10
-43.37
-40.82
-38.20
-35.42
-31.72
-26.35
-18.93
-9.11
1.93
13.54
25.15
36.19
45.77
52.67
55.42
52.86
44.89
31.69
14.85
-3.46
-20.84
-35.26
-45.41
-51.00
-52.66
-51.48
-49.27
-47.59
-47.55
-49.32
-51.99
-53.74
-52.60
-47.05
-36.47
-21.48
-3.64
14.95
32.31
47.07
58.44
66.03
69.87
70.66
69.54
67.50
64.77
60.69
53.93
42.99
26.89
6.06
-17.14
-38.94
-55.32
-63.24
-61.10
-48.75
-27.49
0.72
30.36
53.88
65.75
64.90
53.55
35.38
14.42
-5.23
-22.39
-36.27
-46.15
-51.56
-52.60
-50.17
-45.68
-39.51
-32.54
-25.72
-19.34
-12.81
-4.72
6.32
20.60
36.76
51.98
62.61
65.57
59.76
46.51
28.98
10.73
-5.69
-19.28
-30.29
-39.68
-48.30
-56.42
-63.75
-69.80
-74.34
-77.42
-79.00
-78.74
-75.92
-69.96
-60.76
-48.70
-34.69
-20.11
-6.46
5.11
13.93
20.27
24.76
28.10
31.29
35.09
39.49
43.44
45.26
43.13
36.64
26.51
14.53
3.86
-2.10
-0.93
7.91
23.39
43.09
65.16
87.76
105.14
111.37
103.65
84.15
57.81
32.04
7.92
-13.58
-31.41
-44.91
-53.18
-55.94
-54.11
-49.77
-45.31
-42.84
-42.59
-43.78
-44.94
-43.84
-38.33
-27.29
-11.41
6.85
23.66
35.77
40.86
38.20
29.03
15.81
1.19
-12.98
-25.72
-36.74
-45.33
-50.60
-51.70
-48.15
-40.22
-29.22
-17.38
-7.15
-0.38
2.58
2.67
1.65
1.42
3.56
8.77
16.67
25.98
35.17
42.99
48.50
51.10
50.64
47.90
44.42
41.66
40.13
39.03
36.47
29.94
17.32
-1.72
-24.90
-47.62
-64.69
-71.96
-67.17
-50.24
-23.24
10.51
43.32
66.17
74.07
67.91
52.00
31.20
9.56
-9.58
-25.79
-38.69
-47.55
-51.85
-52.07
-49.86
-47.29
-45.18
-43.83
-42.78
-40.90
-36.81
-29.44
-18.69
-5.47
8.71
22.32
33.91
42.30
46.84
47.45
44.65
39.31
32.36
24.74
17.33
10.59
4.44
-1.59
-8.22
-15.95
-24.93
-34.89
-45.02
-53.98
-60.21
-62.33
-59.28
-50.78
-37.16
-19.66
-0.42
17.93
32.95
43.02
47.48
46.92
42.52
36.19
29.68
23.97
19.07
14.31
8.93
2.36
-5.10
-12.39
-17.32
-17.47
-11.41
0.70
17.29
36.10
54.69
71.49
81.87
82.23
72.28
55.32
35.53
16.00
-0.25
-13.46
-23.59
-30.64
-34.49
-35.60
-34.75
-33.22
-32.03
-31.53
-31.60
-31.42
-30.07
-26.39
-19.39
-8.84
4.42
18.64
31.65
41.22
46.02
45.51
40.23
31.27
19.84
6.99
-6.26
-18.72
-29.15
-36.36
-39.84
-39.90
-37.73
-34.83
-32.53
-31.59
-32.09
-33.54
-34.82
-34.63
-31.51
-24.59
-13.47
1.36
18.33
35.00
48.96
58.80
64.24
66.09
64.97
61.60
56.57
50.04
41.73
31.03
17.30
-0.31
-22.05
-47.88
-75.61
-100.90
-118.50
-124.08
-115.52
-93.26
-60.31
-18.19
25.57
60.94
80.92
84.54
75.14
57.29
36.91
16.12
-3.36
-20.57
-34.35
-43.71
-48.69
-49.29
-46.67
-42.03
-36.22
-29.09
-20.55
-10.26
1.92
15.35
28.57
39.76
47.74
51.90
52.51
49.75
43.89
35.23
23.99
10.44
-4.77
-20.19
-33.89
-43.83
-48.76
-48.39
-43.49
-35.66
-26.89
-19.03
-13.23
-9.87
-8.54
-8.35
-8.04
-6.36
-2.36
4.27
13.24
23.77
34.65
44.49
52.07
56.66
58.04
56.65
53.15
48.57
43.88
39.50
34.95
28.98
20.18
7.39
-9.25
-28.39
-47.12
-61.80
-69.31
-68.06
-58.20
-41.16
-19.19
5.99
29.90
47.33
55.15
53.46
44.45
30.85
16.48
2.58
-9.73
-19.67
-26.55
-30.03
-30.53
-28.50
-25.02
-20.96
-16.87
-12.41
-7.08
-0.29
8.22
18.03
28.11
37.10
43.90
47.52
47.42
43.12
34.58
22.40
7.64
-8.36
-24.60
-40.36
-55.35
-69.23
-81.45
-90.94
-96.31
-96.53
-91.52
-82.44
-70.77
-57.79
-44.09
-29.91
-15.40
-0.83
13.15
25.50
34.76
40.30
42.26
41.46
38.81
35.18
31.65
29.29
28.69
29.03
29.38
28.64
25.94
20.67
13.16
5.25
-0.34
-1.19
3.20
12.53
25.76
41.42
57.65
69.85
73.70
67.54
57.46
45.67
32.93
18.42
3.20
-11.03
-22.60
-30.04
-32.81
-31.67
-29.08
-26.89
-25.83
-25.33
-24.32
-21.73
-16.57
-8.37
2.64
15.06
27.62
39.05
48.02
52.86
52.05
45.06
32.51
16.10
-2.33
-20.58
-36.77
-49.63
-58.86
-64.95
-68.75
-71.18
-72.78
-73.63
-73.12
-70.25
-64.19
-54.84
-42.78
-29.04
-14.73
-0.57
13.04
25.73
36.83
45.44
50.58
51.94
49.90
45.56
40.53
36.44
34.05
32.96
31.86
28.96
23.03
13.47
0.66
-13.79
-27.31
-37.18
-41.32
-38.64
-29.36
-14.51
4.09
22.07
34.32
38.00
33.77
24.39
14.01
3.59
-6.56
-16.26
-25.00
-31.79
-35.49
-35.62
-32.63
-27.47
-21.26
-14.52
-7.56
-0.08
8.75
19.59
32.58
46.91
60.95
72.36
78.86
78.37
70.22
55.23
35.00
11.66
-12.69
-36.34
-57.69
-73.86
-86.37
-97.79
-107.65
-114.79
-117.52
-114.19
-103.79
-86.55
-64.00
-38.88
-13.61
10.17
31.26
48.99
62.98
73.10
79.32
81.55
79.83
75.12
69.19
63.66
59.38
55.98
52.00
45.41
34.21
17.69
-2.67
-23.21
-39.34
-47.13
-44.40
-31.08
-9.08
18.28
45.77
66.40
74.76
70.11
55.59
35.34
12.71
-8.47
-27.40
-42.64
-52.51
-55.84
-52.93
-45.78
-36.94
-28.95
-23.24
-19.67
-16.47
-11.54
-3.13
9.36
24.79
40.55
53.30
59.79
57.98
47.91
31.32
11.34
-8.57
-25.82
-39.25
-47.76
-52.96
-57.42
-61.74
-65.78
-68.93
-70.61
-70.60
-68.91
-65.59
-60.65
-53.72
-44.31
-32.04
-16.72
1.38
21.20
41.05
58.95
72.82
81.68
85.71
86.50
86.43
87.23
88.75
88.91
84.59
72.51
51.30
21.76
-12.35
-45.01
-69.77
-81.70
-78.38
-60.21
-30.56
6.07
