1495010648.00
64.000000
-0.00
-0.00
-0.00
-0.00
-0.00
-0.00
-0.00
-0.00
-0.00
-0.00
0.00
0.01
0.01
-0.00
-0.03
-0.05
-0.05
0.00
0.13
0.36
0.66
1.01
1.37
1.72
2.06
2.40
2.79
3.24
3.80
4.42
5.06
5.66
6.20
6.68
7.15
7.68
8.31
9.14
10.09
11.04
11.88
12.56
13.14
13.76
14.65
15.96
17.91
20.32
22.90
25.38
27.58
29.57
31.68
34.32
37.81
42.54
48.15
54.10
59.83
64.97
69.58
74.14
79.34
85.71
93.76
103.00
112.62
121.73
129.77
136.75
143.30
150.75
157.77
166.64
177.95
191.79
206.97
220.57
228.25
225.36
208.53
176.87
132.76
80.05
23.07
-34.94
-92.44
-149.16
-205.23
-260.37
-313.74
-363.87
-409.83
-450.91
-486.50
-515.74
-537.23
-549.22
-549.96
-538.37
-514.21
-478.67
-433.88
-382.45
-327.02
-269.84
-212.63
-156.66
-102.95
-52.37
-5.90
35.58
71.43
101.35
125.50
144.38
158.69
169.15
176.37
180.75
182.57
182.07
179.51
175.23
169.65
163.18
156.14
148.80
141.29
133.69
126.03
118.36
110.72
103.18
95.79
88.60
81.66
74.99
68.63
62.60
56.90
51.52
46.45
41.67
37.17
32.95
29.03
25.44
22.18
19.23
16.56
14.11
11.84
9.72
7.79
6.09
4.67
3.56
2.71
2.02
1.35
0.59
-0.30
-1.26
-2.13
-2.75
-3.03
-3.02
-2.93
-3.03
-3.54
-4.49
-5.73
-6.92
-7.74
-7.99
-7.77
-7.41
-7.38
-8.01
-9.40
-11.26
-13.09
-14.41
-14.93
-14.77
-14.30
-14.03
-14.37
-15.58
-17.81
-20.99
-24.68
-27.87
-29.01
-26.49
-19.39
-8.15
5.34
18.30
28.22
33.86
35.60
34.90
33.30
31.61
29.65
26.88
23.02
18.59
14.61
12.06
11.26
11.78
12.75
13.40
13.48
13.23
13.15
13.52
14.32
15.28
16.10
16.64
16.91
17.07
17.28
17.65
18.22
18.94
19.64
20.11
20.13
19.56
18.42
16.83
14.91
12.73
10.37
7.69
4.63
1.17
-2.69
-6.92
-11.38
-15.72
-19.36
-21.64
-22.08
-20.62
-17.76
-14.47
-11.74
-10.24
-10.05
-10.69
-11.42
-11.63
-11.05
-9.87
-8.60
-7.75
-7.57
-7.99
-8.66
-9.10
-9.00
-8.28
-7.13
-5.90
-4.91
-4.34
-4.20
-4.45
-4.96
-5.65
-6.41
-7.08
-7.50
-7.50
-6.95
-5.82
-4.10
-1.92
0.48
2.66
4.10
4.33
3.15
0.80
-2.12
-4.83
-6.68
-7.49
-7.57
-7.55
-8.10
-9.57
-11.94
-14.85
-17.76
-20.27
-21.97
-22.72
-22.53
-21.57
-20.06
-18.22
-16.22
-14.17
-12.02
-9.63
-6.85
-3.58
0.10
3.84
7.17
9.62
11.02
11.57
11.75
12.06
12.81
13.99
15.35
16.59
17.54
18.28
19.03
20.00
21.19
22.32
22.96
22.74
21.50
19.38
16.72
13.89
11.13
8.51
5.98
3.50
1.10
-1.04
-2.69
-3.69
-3.94
-3.48
-2.40
-0.79
1.16
3.29
5.36
7.11
8.35
9.03
9.20
9.03
8.70
8.32
7.98
7.69
7.51
7.49
7.66
7.95
8.14
7.96
7.14
5.62
3.52
1.18
-1.08
-2.95
-4.33
-5.24
-5.82
-6.28
-6.91
-7.98
-9.64
-11.80
-14.14
-16.19
-17.56
-18.08
-17.86
-17.18
-16.29
-15.34
-14.32
-13.21
-12.08
-11.10
-10.40
-9.94
-9.50
-8.75
-7.44
-5.59
-3.45
-1.42
0.20
1.28
1.92
2.33
2.73
3.29
4.06
5.08
6.34
7.84
9.53
11.29
12.91
14.15
14.77
14.63
13.73
12.24
10.50
8.85
7.53
6.59
5.84
5.03
3.96
2.56
0.95
-0.68
-2.18
-3.43
-4.42
-5.14
-5.60
-5.74
-5.53
-4.97
-4.16
-3.30
-2.64
-2.37
-2.50
-2.85
-3.12
-2.99
-2.35
-1.27
0.01
1.22
2.22
2.95
3.51
3.93
4.23
4.37
4.31
4.02
3.53
2.91
2.24
1.65
1.24
1.06
1.10
1.27
1.43
1.47
1.34
1.07
0.71
0.25
-0.36
-1.25
-2.46
-3.95
-5.58
-7.12
-8.38
-9.26
-9.74
-9.86
-9.64
-9.04
-7.99
-6.42
-4.35
-1.89
0.79
3.47
5.97
8.14
9.79
10.77
11.03
10.64
9.94
9.33
9.18
9.54
10.15
10.50
10.08
8.62
6.19
3.21
0.19
-2.44
-4.49
-6.05
-7.46
-9.07
-11.18
-13.86
-16.99
-20.21
-23.05
-24.97
-25.53
-24.48
-21.82
-17.84
-13.07
-8.09
-3.40
0.72
4.23
7.22
9.76
11.77
13.12
13.79
13.99
14.20
14.99
16.77
19.54
22.82
25.84
27.72
27.84
25.91
22.02
16.48
9.75
2.38
-4.95
-11.55
-16.84
-20.51
-22.61
-23.37
-22.92
-21.12
-17.63
-12.22
-5.06
3.04
10.82
17.03
20.86
22.16
21.32
18.91
15.37
10.92
5.66
-0.17
-6.11
-11.51
-15.75
-18.41
-19.40
-18.92
-17.44
-15.46
-13.43
-11.68
-10.37
-9.50
-8.94
-8.43
-7.64
-6.31
-4.39
-2.12
-0.04
1.13
0.70
-1.75
-6.19
-12.19
-18.89
-25.26
-30.31
-33.50
-34.96
-35.60
-36.92
-40.41
-46.90
-55.96
-65.77
-73.67
-77.00
-74.11
-64.92
-50.91
-34.53
-18.24
-3.71
8.59
19.15
28.87
38.46
48.21
58.05
67.83
77.46
86.73
95.05
101.28
103.97
101.93
94.91
83.91
70.85
57.80
46.12
36.11
27.24
18.79
10.43
2.39
-4.76
-10.67
-15.43
-19.60
-23.73
-27.98
-32.00
-35.18
-37.04
-37.47
-36.65
-34.72
-31.54
-26.77
-20.19
-12.08
-3.43
4.34
9.71
11.72
10.22
5.93
0.18
-5.67
-10.64
-14.51
-17.73
-21.12
-25.34
-30.43
-35.68
-39.88
-41.75
-40.51
-36.06
-29.05
-20.65
-12.39
-5.72
-1.60
-0.24
-0.84
-1.91
-1.86
0.33
4.70
10.39
16.20
21.22
25.19
28.36
31.05
33.20
34.30
33.70
31.11
26.92
22.19
18.15
15.68
14.91
15.24
15.60
14.99
12.79
8.90
3.73
-1.95
-7.25
-11.36
-13.75
-14.28
-13.20
-11.01
-8.35
-5.72
-3.40
-1.43
0.40
2.43
5.01
8.40
12.67
17.51
22.26
26.01
27.91
27.43
24.62
19.93
13.95
7.14
-0.32
-8.40
-16.90
-25.31
-32.79
-38.51
-41.99
-43.31
-43.01
-41.83
-40.29
-38.52
-36.30
-33.26
-29.26
-24.45
-19.28
-14.29
-9.88
-6.09
-2.65
0.86
4.77
9.11
13.60
17.75
21.03
23.09
23.86
23.59
22.64
21.39
19.98
18.30
16.06
12.96
8.94
4.32
-0.31
-4.18
-6.74
-7.77
-7.47
-6.28
-4.73
-3.23
-2.08
-1.48
-1.50
-2.11
-3.14
-4.20
-4.82
-4.55
-3.12
-0.55
2.87
6.64
10.27
13.31
15.53
16.86
17.31
16.97
15.93
14.27
12.10
9.58
6.91
4.33
2.04
0.13
-1.35
-2.47
-3.28
-3.83
-4.10
-4.00
-3.46
-2.50
-1.22
0.16
1.35
2.08
2.18
1.63
0.48
-1.16
-3.20
-5.49
-7.81
-9.85
-11.26
-11.75
-11.24
-9.91
-8.03
-5.89
-3.66
-1.40
0.80
2.83
4.52
5.77
6.64
7.35
8.10
8.97
9.85
10.58
11.03
11.28
11.47
11.73
12.03
12.19
11.93
11.00
9.30
6.74
3.32
-0.89
-5.68
-10.64
-15.23
-18.97
-21.59
-23.06
-23.59
-23.37
-22.54
-21.12
-19.12
-16.62
-13.74
-10.56
-7.00
-2.93
1.78
7.01
12.37
17.29
21.25
24.03
25.72
26.66
27.25
27.70
27.98
27.84
27.00
25.23
22.50
18.93
14.78
10.36
6.00
1.96
-1.60
-4.63
-7.24
-9.61
-11.92
-14.27
-16.61
-18.77
-20.44
-21.30
-21.06
-19.61
-16.99
-13.46
-9.45
-5.44
-1.86
1.02
3.14
4.63
5.67
6.46
7.15
7.84
8.60
9.46
10.42
11.41
12.31
12.99
13.35
13.31
12.90
12.13
11.03
9.65
8.04
6.28
4.45
2.65
0.91
-0.72
-2.22
-3.59
-4.83
-6.04
-7.38
-9.04
-11.13
-13.63
-16.28
-18.68
-20.34
-20.87
-20.03
-17.85
-14.58
-10.66
-6.66
-3.09
-0.25
1.77
3.15
4.09
4.77
5.22
5.44
5.44
5.32
5.29
5.47
5.90
6.45
6.93
7.21
7.32
7.43
7.75
8.35
9.10
9.71
9.84
9.30
8.14
6.59
5.01
3.65
2.56
1.62
0.60
-0.67
-2.25
-4.06
-5.95
-7.81
-9.56
-11.19
-12.64
-13.80
-14.50
-14.55
-13.89
-12.61
-10.93
-9.13
-7.37
-5.68
-3.96
-2.09
-0.05
2.04
3.97
5.59
6.86
7.90
8.86
9.82
10.78
11.61
12.18
12.42
12.36
12.09
11.71
11.28
10.79
10.17
9.37
8.34
7.10
5.69
4.19
2.65
1.10
-0.45
-1.96
-3.34
-4.47
-5.27
-5.76
-6.10
-6.51
-7.15
-8.00
-8.82
-9.31
-9.19
-8.34
-6.82
-4.79
-2.42
0.14
2.78
5.37
7.69
9.55
10.81
11.53
11.92
12.27
12.79
13.47
14.07
14.23
13.72
12.50
10.77
8.80
6.72
4.49
1.99
-0.79
-3.61
-6.04
-7.75
-8.67
-9.12
-9.57
-10.31
-11.21
-11.78
-11.52
-10.30
-8.57
-7.15
-6.79
-7.79
-9.79
-12.03
-13.74
-14.53
-14.49
-13.94
-13.14
-12.10
-10.67
-8.72
-6.38
-4.06
-2.22
-1.09
-0.55
-0.20
0.38
1.42
2.82
4.30
5.52
6.28
6.56
6.45
6.08
5.57
5.02
4.54
4.25
4.22
4.44
4.86
5.33
5.72
5.92
5.85
5.54
5.08
4.60
4.21
3.95
3.83
3.82
3.89
3.96
3.94
3.65
2.89
1.58
-0.21
-2.21
-4.03
-5.35
-6.04
-6.14
-5.84
-5.32
-4.68
-3.99
-3.26
-2.49
-1.70
-0.85
0.08
1.06
2.01
2.84
3.47
3.87
4.06
4.08
4.00
3.85
3.71
3.66
3.75
3.97
4.25
4.52
4.65
4.56
4.27
3.84
3.33
2.79
2.22
1.63
1.10
0.67
0.34
0.07
-0.24
-0.75
-1.60
-2.88
-4.39
-5.82
-6.91
-7.69
-8.42
-9.49
-11.28
-13.79
-16.79
-19.27
-20.27
-19.37
-17.03
-14.30
-12.32
-12.04
-13.61
-16.75
-19.81
-21.12
-19.90
-16.77
-13.27
-10.95
-11.05
-13.57
-17.98
-21.78
-22.43
-18.59
-10.81
-0.81
9.66
18.92
26.85
33.79
42.65
56.61
77.42
104.39
135.21
167.34
198.14
226.43
237.21
218.63
168.82
99.01
26.05
-36.80
-79.59
-105.95
-120.00
-125.68
-124.31
-116.54
-104.15
-90.02
-77.04
-66.79
-59.89
-55.01
-51.16
-46.41
-39.32
-29.61
-18.15
-6.35
4.54
13.05
18.68
20.94
20.77
19.62
18.62
17.95
16.90
14.61
10.38
4.67
-1.71
-7.39
-11.13
-12.38
-11.46
-9.32
-7.10
-5.92
-6.15
-7.57
-9.26
-10.09
-9.24
-6.69
-3.17
0.31
2.90
4.39
5.07
5.34
5.39
5.10
4.22
2.67
0.71
-1.21
-2.77
-4.00
-5.20
-6.71
-8.63
-10.66
-12.26
-12.94
-12.46
-10.94
-8.80
-6.58
-4.83
-3.93
-4.08
-5.27
-7.36
-10.10
-13.16
-16.15
-18.67
-20.27
-20.60
-19.51
-17.09
-13.67
-9.69
-5.54
-1.56
1.92
4.54
6.07
6.44
5.97
5.22
4.77
4.97
5.71
6.51
6.84
6.34
5.00
3.15
1.17
-0.67
-2.25
-3.52
-4.43
-4.83
-4.58
-3.71
-2.43
-1.16
-0.30
-0.06
-0.35
-0.89
-1.33
-1.42
-1.18
-0.75
-0.36
-0.14
-0.09
-0.13
-0.16
-0.11
0.03
0.25
0.61
1.08
1.60
1.98
2.03
1.58
0.63
-0.64
-1.92
-2.91
-3.41
-3.36
-2.81
-1.92
-0.85
0.25
1.25
2.04
2.57
2.90
3.12
3.35
3.63
3.98
4.32
4.57
4.63
4.42
3.93
3.20
2.33
1.43
0.57
-0.27
-1.12
-2.02
-2.94
-3.73
-4.25
-4.37
-4.08
-3.41
-2.45
-1.32
-0.22
0.60
0.82
0.24
-1.12
-2.99
-4.94
-6.61
-7.82
-8.61
-9.13
-9.46
-9.54
-9.21
-8.41
-7.22
-5.80
-4.27
-2.66
-0.93
0.89
2.58
3.76
4.10
3.46
2.05
0.32
-1.30
-2.55
-3.45
-4.18
-4.94
-5.70
-6.32
-6.51
-6.12
-5.17
-3.89
-2.58
-1.59
-1.10
-1.16
-1.66
-2.45
-3.30
-4.01
-4.42
-4.44
-4.10
-3.62
-3.27
-3.27
-3.66
-4.20
-4.50
-4.21
-3.12
-1.35
0.75
2.70
4.02
4.45
3.99
2.89
1.63
0.69
0.44
0.99
2.18
3.66
5.02
5.86
5.92
5.16
3.72
1.97
0.42
-0.38
-0.08
1.40
3.80
6.57
9.04
10.57
10.74
9.47
7.04
4.00
1.10
-1.00
-1.93
-1.71
-0.73
0.50
1.55
2.26
2.67
2.92
3.07
3.06
2.75
2.01
0.85
-0.57
-1.98
-3.11
-3.76
-3.84
-3.39
-2.60
-1.77
-1.20
-1.15
-1.69
-2.70
-3.85
-4.81
-5.28
-5.12
-4.29
-2.90
-1.10
0.88
2.71
4.02
4.48
3.97
2.60
0.74
-1.10
-2.45
-2.98
-2.56
-1.23
0.81
3.24
5.65
7.61
8.79
9.03
8.42
7.25
5.87
4.64
3.81
3.53
3.77
4.40
5.13
5.63
5.60
4.95
3.79
2.48
1.43
0.98
1.21
1.95
2.81
3.41
3.43
2.74
1.38
-0.47
-2.58
-4.76
-6.90
-8.92
-10.70
-12.06
-12.80
-12.77
-11.99
-10.69
-9.20
-7.83
-6.77
-6.02
-5.48
-5.05
-4.69
-4.40
-4.16
-3.94
-3.66
-3.26
-2.74
-2.11
-1.37
-0.50
0.52
1.68
2.86
3.85
4.46
4.59
4.26
3.65
2.94
2.33
1.97
1.91
2.11
2.43
2.64
2.49
1.83
0.66
-0.85
-2.47
-4.00
-5.34
-6.52
-7.59
-8.52
-9.21
-9.48
-9.21
-8.38
-7.08
-5.48
-3.76
-2.06
-0.48
0.94
2.22
3.39
4.49
5.53
6.51
7.42
8.26
9.02
9.71
10.31
10.74
10.93
10.81
10.41
9.87
9.37
9.09
9.13
9.46
10.00
10.61
11.23
11.86
12.56
13.41
14.40
15.44
16.37
17.03
17.38
17.55
17.84
18.62
20.27
22.95
26.54
30.62
34.65
38.10
40.73
42.61
44.09
45.53
47.18
49.03
50.93
52.62
53.86
54.41
54.02
52.40
49.39
45.05
39.71
33.87
27.98
22.17
16.24
9.80
2.56
-5.40
-13.49
-20.85
-26.71
-30.74
-33.18
-34.71
-36.13
-37.95
-40.24
-42.68
-44.87
-46.56
-47.71
-48.44
-48.81
-48.71
-47.95
-46.41
-44.30
-42.02
-39.99
-38.47
-37.51
-37.07
-37.18
-37.95
-39.39
-41.17
-42.44
-42.07
-39.03
-32.89
-24.12
-14.00
-4.14
3.99
9.48
12.08
12.07
10.09
7.02
3.83
1.49
0.71
1.83
4.66
8.62
12.99
17.20
20.92
23.96
26.06
26.82
25.84
23.03
18.81
14.05
9.79
6.72
4.97
4.12
3.56
2.82
1.82
0.72
-0.28
-1.12
-1.94
-2.92
-4.12
-5.35
-6.29
-6.58
-6.02
-4.63
-2.61
-0.19
2.41
5.08
7.73
10.31
12.66
14.63
15.98
16.44
15.76
13.79
10.53
6.27
1.52
-3.09
-7.02
-9.98
-11.97
-13.22
-13.96
-14.31
-14.23
-13.63
-12.51
-11.01
-9.41
-7.95
-6.77
-5.83
-5.02
-4.25
-3.53
-3.00
-2.78
-2.98
-3.56
-4.42
-5.48
-6.71
-8.12
-9.76
-11.63
-13.59
-15.44
-16.94
-17.90
-18.21
-17.96
-17.36
-16.80
-16.65
-17.24
-18.62
-20.56
-22.47
-23.63
-23.36
-21.25
-17.35
-12.22
-6.83
-2.31
0.47
1.12
-0.02
-2.11
-4.11
-5.32
-5.66
-5.72
-6.55
-9.18
-14.21
-21.60
-30.61
-40.08
-48.75
-55.64
-60.30
-62.81
-63.65
-63.35
-62.25
-60.44
-57.98
-55.06
-52.01
-49.14
-46.35
-43.06
-38.37
-31.66
-23.13
-14.00
-6.05
-0.79
1.35
1.28
0.80
1.82
5.42
11.53
19.16
27.04
34.27
40.57
46.15
51.16
55.32
57.92
58.17
55.79
51.30
45.88
40.86
37.12
34.75
33.18
31.67
29.83
27.88
26.49
26.32
27.61
30.12
33.38
37.08
41.08
45.10
48.23
48.85
45.01
35.29
19.69
-0.17
-21.45
-41.16
-57.04
-68.21
-74.90
-77.91
-78.00
-75.73
-71.59
-66.00
-59.13
-50.36
-38.05
-20.04
5.15
36.92
72.00
105.23
131.44
147.61
153.96
153.46
150.11
147.02
145.24
143.93
141.27
135.60
126.00
112.11
93.90
71.51
45.45
16.86
-12.32
-39.53
-62.17
-78.15
-86.62
-88.09
-84.38
-77.94
-71.18
-65.82
-62.74
-62.07
-63.58
-66.78
-70.94
-75.09
-78.07
-78.86
-76.91
-72.35
-65.84
-58.20
-50.08
-41.72
-33.18
-24.58
-16.20
-8.50
-1.91
3.36
7.35
10.28
12.41
13.98
15.23
16.36
17.59
19.03
20.60
22.02
22.90
22.83
21.56
19.10
15.77
12.03
8.41
5.32
2.99
1.46
0.65
0.41
0.63
1.26
2.25
3.52
4.89
6.08
6.85
7.04
6.63
5.69
4.23
2.19
-0.55
-4.02
-8.04
-12.25
-16.13
-19.17
-21.05
-21.66
-21.10
-19.62
-17.53
-15.10
-12.48
-9.68
-6.64
-3.30
0.27
3.81
6.90
9.16
10.29
10.23
9.07
7.02
4.30
1.18
-2.03
-5.02
-7.50
-9.26
-10.25
-10.52
-10.10
-9.02
-7.27
-5.02
-2.68
-0.79
0.07
-0.33
-1.87
-4.02
-6.18
-7.91
-9.03
-9.66
-9.99
-10.19
-10.30
-10.30
-10.07
-9.51
-8.52
-7.08
-5.28
-3.30
-1.42
0.20
1.52
2.64
3.73
4.88
6.10
7.31
8.46
9.58
10.73
11.96
13.25
14.47
15.43
15.98
16.05
15.70
15.09
14.44
13.92
13.55
13.15
12.46
11.19
9.30
6.97
4.58
2.51
0.95
-0.11
-0.83
-1.40
-1.88
-2.30
-2.70
-3.26
-4.19
-5.69
-7.72
-9.96
-11.93
-13.15
-13.46
-13.08
-12.50
-12.20
-12.41
-12.91
-13.17
-12.65
-11.10
-8.73
-6.06
-3.74
-2.17
-1.41
-1.19
-1.09
-0.81
-0.23
0.56
1.39
2.16
2.85
3.49
4.10
4.63
4.98
5.05
4.80
4.37
3.99
3.91
4.25
4.90
5.58
6.00
6.01
5.72
5.40
5.31
5.55
6.01
6.47
6.79
6.96
7.20
7.74
8.74
10.10
11.53
12.66
13.20
13.04
12.32
11.30
10.24
9.24
8.27
7.18
5.87
4.41
2.98
1.86
1.23
1.11
1.39
1.96
2.71
3.55
4.35
4.88
4.94
4.41
3.42
2.32
1.49
1.16
1.27
1.50
1.42
0.72
-0.66
-2.53
-4.56
-6.39
-7.83
-8.75
-9.16
-9.05
-8.35
-7.01
-5.01
-2.51
0.14
2.49
4.16
4.94
4.88
4.27
3.47
2.81
2.44
2.37
2.46
2.50
2.33
1.90
1.30
0.70
0.33
0.41
1.01
2.14
3.67
5.36
6.87
7.81
7.76
6.49
4.05
0.77
-2.78
-6.07
-8.78
-10.84
-12.41
-13.66
-14.65
-15.26
-15.34
-14.76
-13.54
-11.84
-10.00
-8.36
-7.18
-6.60
-6.54
-6.76
-6.97
-6.96
-6.64
-6.09
-5.44
-4.75
-3.98
-3.05
-1.94
-0.80
0.14
0.64
0.69
0.54
0.61
1.27
2.64
4.60
6.83
9.00
10.92
12.54
13.83
14.67
14.84
14.09
12.34
9.74
6.69
3.62
0.84
-1.64
-4.05
-6.64
-9.53
-12.49
-15.12
-16.92
-17.62
-17.24
-16.02
-14.37
-12.57
-10.74
-8.88
-6.96
-5.02
-3.19
-1.61
-0.35
0.62
1.37
1.95
2.35
2.51
2.36
1.94
1.39
0.93
0.76
1.01
1.59
2.28
2.74
2.68
1.95
0.61
-1.07
-2.67
-3.75
-4.07
-3.63
-2.66
-1.54
-0.65
-0.24
-0.39
-1.02
-1.98
-3.13
-4.28
-5.28
-5.95
-6.15
-5.83
-5.02
-3.85
-2.45
-0.94
0.61
2.09
3.35
4.22
4.56
4.36
3.78
3.07
2.48
2.12
1.96
1.84
1.62
1.24
0.70
0.06
-0.59
-1.17
-1.54
-1.56
-1.07
0.04
1.70
3.73
5.82
7.64
8.91
9.55
9.61
9.30
8.88
8.60
8.57
8.85
9.39
10.08
10.77
11.31
11.50
11.24
10.57
9.69
8.89
8.48
8.59
9.13
9.86
10.45
10.74
10.69
10.40
9.97
9.41
8.66
7.62
6.37
5.13
4.22
3.91
4.26
5.07
5.95
6.46
6.28
5.31
3.69
1.75
-0.14
-1.68
-2.71
-3.32
-3.76
-4.40
-5.52
-7.17
-9.04
-10.65
-11.50
-11.30
-10.15
-8.41
-6.56
-4.99
-3.86
-3.09
-2.40
-1.56
-0.40
1.05
2.56
3.87
4.75
5.10
4.98
4.53
3.93
3.31
2.71
2.13
1.55
1.01
0.58
0.34
0.29
0.31
0.26
-0.00
-0.51
-1.24
-2.10
-3.03
-4.02
-5.04
-6.05
-6.90
-7.44
-7.50
-7.09
-6.37
-5.62
-5.17
-5.15
-5.56
-6.14
-6.58
-6.55
-5.89
-4.66
-3.04
-1.28
0.43
1.97
3.31
4.46
5.39
6.03
6.34
6.39
6.30
6.26
6.38
6.64
6.88
6.83
6.29
5.11
3.32
1.05
-1.50
-4.13
-6.61
-8.72
-10.31
-11.33
-11.88
-12.19
-12.57
-13.26
-14.34
-15.74
-17.22
-18.59
-19.69
-20.51
-21.10
-21.52
-21.73
-21.62
-21.10
-20.09
-18.63
-16.85
-14.87
-12.82
-10.79
-8.84
-7.02
-5.37
-3.89
-2.56
-1.36
-0.26
0.71
1.54
2.21
2.74
3.17
3.52
3.75
3.84
3.72
3.38
2.86
2.22
1.50
0.70
-0.19
-1.16
-2.16
-3.09
-3.86
-4.37
-4.54
-4.34
-3.80
-3.08
-2.40
-1.95
-1.77
-1.76
-1.64
-1.16
-0.23
1.05
2.46
3.79
4.99
6.21
7.62
9.36
11.32
13.20
14.65
15.47
15.75
15.76
15.83
16.12
16.55
16.86
16.77
16.19
15.26
14.26
13.43
12.78
12.08
10.97
9.20
6.70
3.65
0.36
-2.82
-5.58
-7.74
-9.20
-10.01
-10.31
-10.29
-10.14
-9.95
-9.71
-9.31
-8.64
-7.61
-6.21
-4.44
-2.34
-0.01
2.29
4.19
5.38
5.75
5.58
5.40
5.75
6.84
8.44
9.97
10.76
10.47
9.19
7.34
5.47
3.97
3.05
2.75
3.08
4.00
5.34
6.70
7.53
7.24
5.55
2.66
-0.81
-4.02
-6.29
-7.29
-7.17
-6.32
-5.24
-4.29
-3.69
-3.51
-3.81
-4.57
-5.67
-6.86
-7.75
-7.92
-7.13
-5.39
-3.03
-0.53
1.63
3.16
4.08
4.67
5.24
5.98
6.74
7.14
6.75
5.38
3.27
1.03
-0.61
-1.16
-0.59
0.68
2.08
3.10
3.57
3.64
3.56
3.49
3.34
2.87
1.85
0.26
-1.65
-3.44
-4.69
-5.17
-4.97
-4.35
-3.60
-2.87
-2.08
-1.14
0.01
1.30
2.67
4.25
6.39
9.58
14.13
19.95
26.47
32.80
38.07
41.72
43.58
43.73
42.31
39.41
35.11
29.57
23.19
16.47
9.90
3.78
-1.90
-7.32
-12.70
-18.13
-23.44
-28.32
-32.43
-35.52
-37.44
-38.21
-37.85
-36.48
-34.23
-31.33
-28.05
-24.74
-21.72
-19.19
-17.26
-15.94
-15.17
-14.93
-15.18
-15.88
-16.91
-18.01
-18.85
-19.03
-18.24
-16.35
-13.54
-10.21
-6.90
-4.08
-2.00
-0.63
0.25
0.98
1.76
2.62
3.41
3.92
4.09
4.04
4.07
4.43
5.21
6.28
7.34
8.09
8.39
8.33
8.17
8.16
8.47
9.00
9.48
9.55
8.94
7.60
5.64
3.30
0.83
-1.60
-3.86
-5.88
-7.54
-8.75
-9.48
-9.87
-10.17
-10.63
-11.38
-12.33
-13.20
-13.68
-13.49
-12.48
-10.65
-8.08
-5.00
-1.73
1.28
3.62
5.05
5.63
5.67
5.62
5.83
6.39
7.16
7.85
8.26
8.38
8.37
8.44
8.73
9.22
9.76
10.11
10.05
9.41
8.15
6.39
4.36
2.31
0.41
-1.28
-2.87
-4.45
-5.99
-7.31
-8.08
-8.00
-6.99
-5.14
-2.73
-0.03
2.84
5.87
9.15
12.74
16.57
20.50
24.37
28.07
31.59
34.94
38.11
40.92
43.04
44.03
43.54
41.33
37.42
31.98
25.33
17.83
9.92
2.11
-5.02
-10.88
-15.02
-17.20
-17.47
-16.11
-13.53
-10.14
-6.36
-2.58
0.78
3.40
5.11
5.95
6.14
5.92
5.37
4.41
2.85
0.59
-2.23
-5.22
-7.81
-9.56
-10.24
-9.93
-8.83
-7.18
-5.10
-2.65
0.05
2.76
5.17
6.98
8.05
8.47
8.40
8.03
7.42
6.62
5.69
4.77
4.03
3.51
3.12
2.62
1.72
0.34
-1.47
-3.48
-5.48
-7.34
-8.97
-10.31
-11.33
-11.99
-12.43
-12.86
-13.54
-14.53
-15.65
-16.59
-17.05
-16.99
-16.65
-16.47
-16.80
-17.72
-19.00
-20.19
-20.86
-20.75
-19.82
-18.20
-16.05
-13.47
-10.45
-6.98
-3.13
0.82
4.47
7.42
9.37
10.33
10.57
10.50
10.43
10.43
10.28
9.68
8.35
6.24
3.57
0.74
-1.71
-3.24
-3.43
-2.08
0.68
4.43
8.60
12.62
16.18
19.24
21.94
24.39
26.51
28.02
28.57
27.98
26.32
23.92
21.13
18.26
15.42
12.63
9.95
7.51
5.48
3.93
2.73
1.57
0.12
-1.79
-4.04
-6.32
-8.21
-9.45
-9.99
-9.95
-9.54
-8.85
-7.88
-6.55
-4.81
-2.75
-0.59
1.44
3.14
4.36
5.05
5.14
4.63
3.51
1.85
-0.19
-2.36
-4.33
-5.80
-6.68
-7.12
-7.55
-8.46
-10.22
-12.89
-16.20
-19.71
-23.03
-25.93
-28.36
-30.25
-31.48
-31.82
-31.13
-29.51
-27.29
-24.91
-22.63
-20.45
-18.15
-15.53
-12.68
-9.97
-7.84
-6.52
-5.79
-5.12
-4.00
-2.25
-0.25
1.33
1.94
1.50
0.50
-0.26
-0.15
0.95
2.56
3.90
4.30
3.46
1.56
-0.90
-3.30
-5.07
-5.70
-4.79
-2.17
1.95
6.93
11.82
15.69
18.03
18.98
19.20
19.49
20.35
21.70
22.93
23.35
22.52
20.57
18.06
15.72
13.99
12.83
11.84
10.59
8.89
6.97
5.27
4.20
3.89
4.07
4.28
4.12
3.46
2.48
1.60
1.13
1.17
1.56
1.97
2.07
1.67
0.83
-0.26
-1.31
-2.03
-2.20
-1.67
-0.42
1.37
3.36
5.07
6.04
5.97
4.88
3.04
0.87
-1.29
-3.24
-4.99
-6.62
-8.19
-9.56
-10.50
-10.75
-10.26
-9.20
-7.97
-7.01
-6.54
-6.59
-6.91
-7.18
-7.20
-6.93
-6.54
-6.24
-6.17
-6.36
-6.69
-7.03
-7.24
-7.24
-6.96
-6.33
-5.38
-4.15
-2.83
-1.73
-1.13
-1.28
-2.24
-3.82
-5.66
-7.35
-8.62
-9.40
-9.85
-10.20
-10.54
-10.86
-10.99
-10.79
-10.30
-9.66
-9.09
-8.65
-8.19
-7.44
-6.17
-4.37
-2.27
-0.31
1.12
1.86
1.99
1.82
1.71
1.88
2.36
3.01
3.61
4.01
4.17
4.16
4.07
3.96
3.74
3.32
2.64
1.81
1.05
0.59
0.51
0.64
0.66
0.27
-0.64
-1.94
-3.32
-4.48
-5.23
-5.56
-5.55
-5.37
-5.18
-5.09
-5.16
-5.36
-5.55
-5.52
-5.09
-4.13
-2.66
-0.80
1.24
3.22
4.97
6.37
7.35
7.95
8.27
8.47
8.77
9.32
10.17
11.20
12.19
12.84
12.91
12.31
11.10
9.53
7.89
6.48
5.48
4.92
4.68
4.56
4.31
3.71
2.62
1.02
-0.96
-3.09
-5.05
-6.59
-7.53
-7.90
-7.81
-7.51
-7.19
-7.00
-6.95
-6.92
-6.76
-6.29
-5.38
-4.01
-2.31
-0.50
1.12
2.32
3.03
3.32
3.37
3.34
3.29
3.20
2.98
2.62
2.15
1.62
1.05
0.42
-0.30
-1.15
-2.07
-2.97
-3.76
-4.42
-4.99
-5.57
-6.27
-7.08
-7.90
-8.54
-8.76
-8.40
-7.48
-6.18
-4.76
-3.50
-2.55
-1.89
-1.41
-0.93
-0.30
0.53
1.54
2.63
3.63
4.37
4.73
4.69
4.34
3.87
3.46
3.24
3.23
3.36
3.52
3.61
3.62
3.57
3.50
3.41
3.32
3.23
3.18
3.20
3.37
3.66
3.98
4.14
3.94
3.28
2.25
1.10
0.16
-0.33
-0.26
0.34
1.39
2.77
4.40
6.19
7.99
9.62
10.92
11.82
12.33
12.55
12.58
12.50
12.35
12.12
11.82
11.42
10.87
10.10
9.07
7.84
6.53
5.33
4.37
3.70
3.23
2.79
2.27
1.62
0.86
0.07
-0.75
-1.60
-2.54
-3.51
-4.40
-5.05
-5.38
-5.45
-5.44
-5.55
-5.85
-6.13
-6.02
-5.17
-3.42
-1.02
1.56
3.81
5.46
6.45
6.92
7.02
6.91
6.90
7.46
9.18
12.33
16.67
21.31
25.08
27.07
27.15
26.03
24.71
23.88
23.45
22.79
21.19
18.43
14.79
10.88
7.07
3.32
-0.68
-5.23
-10.38
-15.82
-21.07
-25.76
-29.70
-32.87
-35.32
-37.09
-38.16
-38.49
-38.01
-36.59
-34.06
-30.34
-25.56
-20.11
-14.59
-9.63
-5.72
-3.05
-1.40
-0.31
0.84
2.52
4.87
7.63
10.26
12.24
13.24
13.35
12.91
12.38
12.09
12.11
12.22
12.06
11.25
9.53
6.83
3.31
-0.76
-5.01
-9.07
-12.67
-15.64
-17.99
-19.76
-21.04
-21.93
-22.57
-23.10
-23.71
-24.48
-25.35
-26.15
-26.60
-26.48
-25.69
-24.22
-22.10
-19.31
-15.83
-11.69
-7.15
-2.71
1.03
3.55
4.67
4.60
3.79
2.67
1.47
0.15
-1.44
-3.39
-5.56
-7.65
-9.37
-10.65
-11.76
-13.23
-15.59
-19.00
-23.13
-27.15
-30.16
-31.55
-31.25
-29.72
-27.58
-25.29
-23.00
-20.61
-18.11
-15.64
-13.50
-11.77
-10.11
-7.69
-3.62
2.57
10.57
19.35
27.58
34.13
38.45
40.60
41.07
40.40
38.96
36.81
33.81
29.73
24.41
17.96
10.89
4.10
-1.29
-4.29
-4.50
-2.24
1.46
5.32
8.20
9.47
9.01
7.13
4.36
1.30
-1.46
-3.35
-3.91
-2.90
-0.45
2.77
5.65
6.78
4.95
-0.44
-8.97
-19.09
-28.49
-34.81
-36.43
-33.03
-25.59
-15.83
-5.36
4.88
14.74
24.53
34.39
43.94
52.20
58.07
60.83
60.47
57.86
54.29
51.11
49.19
48.68
49.10
49.51
48.90
46.45
41.75
34.81
26.00
16.02
5.81
-3.58
-11.15
-16.22
-18.67
-18.89
-17.42
-14.54
-9.96
-2.99
6.93
19.55
33.54
46.72
56.75
61.87
61.32
55.34
44.92
31.51
16.89
2.92
-8.61
-16.42
-20.10
-20.23
-18.04
-14.92
-11.89
-9.40
-7.50
-6.24
-5.80
-6.45
-8.23
-10.85
-13.69
-16.24
-18.37
-20.49
-23.29
-27.28
-32.45
-38.15
-43.43
-47.36
-49.48
-49.78
-48.59
-46.39
-43.57
-40.45
-37.29
-34.32
-31.67
-29.36
-27.29
-25.32
-23.25
-20.96
-18.31
-15.29
-12.03
-8.82
-6.06
-4.22
-3.55
-4.01
-5.25
-6.68
-7.73
-8.05
-7.55
-6.38
-4.83
-3.17
-1.56
-0.05
1.41
2.89
4.42
5.95
7.37
8.52
9.30
9.70
9.83
9.85
9.89
9.98
10.04
9.88
9.38
8.56
7.58
6.71
6.16
5.99
6.06
6.07
5.71
4.80
3.37
1.63
-0.16
-1.79
-3.18
-4.34
-5.29
-6.02
-6.50
-6.70
-6.69
-6.65
-6.73
-7.01
-7.42
-7.77
-7.82
-7.40
-6.40
-4.82
-2.75
-0.34
2.16
4.41
6.10
6.98
7.00
6.34
5.36
4.46
3.94
3.92
4.29
4.75
4.97
4.74
4.04
2.97
1.63
0.04
-1.88
-4.15
-6.56
-8.60
-9.63
-9.28
-7.73
-5.75
-4.41
-4.59
-6.57
-10.02
-14.18
-18.26
-21.64
-23.90
-24.79
-24.22
-22.30
-19.40
-16.14
-13.11
-10.64
-8.70
-6.93
-4.96
-2.60
0.04
2.71
5.15
7.26
8.99
10.23
10.71
10.02
7.81
4.02
-0.98
-6.46
-11.50
-15.29
-17.32
-17.43
-15.80
-12.80
-8.99
-4.94
-1.18
1.95
4.42
6.57
8.89
11.79
15.32
19.07
22.37
24.60
25.54
25.52
25.10
24.77
24.62
24.30
23.16
20.63
16.55
11.36
6.12
2.25
1.07
3.43
9.33
17.85
27.33
35.87
41.85
44.43
43.73
40.60
36.25
31.68
27.48
23.82
20.70
18.18
16.36
15.23
14.41
13.18
10.74
6.70
1.40
-4.10
-8.55
-11.17
-12.06
-12.18
-12.80
-14.82
-18.29
-22.40
-25.92
-27.73
-27.28
-24.67
-20.51
-15.61
-10.65
-6.07
-2.02
1.46
4.39
6.71
8.33
9.11
8.98
7.94
6.10
3.68
0.90
-2.01
-4.87
-7.54
-9.88
-11.72
-12.93
-13.50
-13.59
-13.50
-13.56
-13.94
-14.57
-15.15
-15.43
-15.28
-14.91
-14.83
-15.67
-17.84
-21.40
-25.90
-30.50
-34.21
-36.17
-35.97
-33.77
-30.19
-26.07
-22.09
-18.58
-15.45
-12.46
-9.40
-6.26
-3.19
-0.35
2.17
4.47
6.66
8.77
10.63
11.99
12.66
12.69
12.49
12.61
13.57
15.62
18.64
22.23
25.93
29.29
32.01
33.85
34.59
34.09
32.35
29.67
26.59
23.75
21.62
20.31
19.58
19.01
18.31
17.45
16.66
16.28
16.52
17.39
18.62
19.84
20.68
20.90
20.43
19.38
17.95
16.36
14.76
13.13
11.34
9.14
6.25
2.44
-2.37
-8.09
-14.41
-20.80
-26.73
-31.90
-36.33
-40.40
-44.68
-49.56
-55.16
-61.17
-66.96
-71.71
-74.59
-74.95
-72.36
-66.70
-58.14
-47.18
-34.51
-20.97
-7.44
5.26
16.36
25.19
31.34
34.75
35.89
35.70
35.28
35.53
36.75
38.51
39.82
39.57
37.08
32.45
26.50
20.43
15.17
11.02
7.61
4.20
0.23
-4.29
-8.74
-12.29
-14.31
-14.67
-13.70
-11.85
-9.37
-6.18
-2.02
3.19
9.10
14.91
19.65
22.56
23.40
22.52
20.63
18.58
16.96
15.98
15.45
14.97
14.12
12.79
11.18
9.71
8.79
8.56
8.85
9.27
9.45
9.28
8.88
8.42
7.84
6.77
4.60
0.83
-4.70
-11.64
-19.21
-26.48
-32.57
-36.82
-38.87
-38.67
-36.48
-32.85
-28.57
-24.47
-21.32
-19.57
-19.29
-20.06
-21.07
-21.28
-19.76
-16.02
-10.28
-3.44
3.20
8.39
11.39
12.12
11.10
9.20
7.35
6.44
7.08
9.62
13.93
19.38
24.92
29.40
31.97
32.35
30.92
28.41
25.50
22.55
19.51
16.18
12.49
8.70
5.32
2.90
1.76
1.87
2.88
4.24
5.41
5.92
5.48
4.03
1.71
-1.15
-4.08
-6.67
-8.63
-9.90
-10.59
-10.89
-10.94
-10.82
-10.52
-9.95
-8.94
-7.33
-5.07
-2.21
0.99
4.20
7.06
9.36
11.04
12.16
12.84
13.13
13.09
12.76
12.18
11.42
10.53
9.56
8.52
7.46
6.45
5.59
4.98
4.70
4.86
5.55
6.84
8.68
10.83
12.90
14.48
15.24
15.09
14.20
12.90
11.54
10.40
9.61
9.16
8.96
8.97
9.25
9.98
11.31
13.26
15.63
17.99
19.84
20.85
21.01
20.58
19.96
19.45
19.13
18.89
18.54
17.94
17.03
15.78
14.09
11.82
8.84
5.19
1.13
-2.96
-6.67
-9.75
-12.16
-13.99
-15.35
-16.33
-16.93
-17.25
-17.47
-17.86
-18.70
-20.16
-22.21
-24.65
-27.17
-29.47
-31.35
-32.69
-33.43
-33.58
-33.18
-32.37
-31.30
-30.14
-28.94
-27.57
-25.63
-22.58
-17.83
-11.11
-2.62
6.87
16.17
24.14
30.01
33.57
35.05
34.76
32.92
29.51
24.51
18.18
11.09
4.07
-2.15
-7.16
-10.94
-13.70
-15.65
-16.85
-17.29
-17.04
-16.27
-15.29
-14.35
-13.59
-13.03
-12.57
-12.07
-11.43
-10.51
-9.24
-7.57
-5.54
-3.29
-1.00
1.17
3.18
5.06
6.88
8.70
10.44
12.01
13.37
14.52
15.53
16.39
16.96
16.91
15.87
13.61
10.12
5.78
1.20
-2.95
-6.11
-8.01
-8.67
-8.33
-7.37
-6.14
-4.96
-4.09
-3.73
-4.08
-5.32
-7.47
-10.39
-13.64
-16.58
-18.54
-19.01
-17.85
-15.31
-11.93
-8.28
-4.76
-1.53
1.49
4.43
7.31
9.96
12.14
13.58
14.23
14.18
13.64
12.89
12.11
11.44
10.95
10.70
10.65
10.73
10.78
10.55
9.91
8.86
7.56
6.29
5.27
4.52
3.87
2.99
1.60
-0.48
-3.20
-6.37
-9.70
-12.83
-15.46
-17.29
-18.09
-17.72
-16.17
-13.66
-10.55
-7.34
-4.55
-2.53
-1.45
-1.18
-1.51
-2.11
-2.73
-3.21
-3.52
-3.70
-3.81
-3.93
-4.13
-4.48
-4.98
-5.62
-6.33
-7.09
-8.03
-9.35
-11.33
-14.19
-17.92
-22.31
-26.89
-31.05
-34.14
-35.58
-35.04
-32.60
-28.77
-24.45
-20.70
-18.47
-18.35
-20.52
-24.74
-30.45
-36.81
-42.80
-47.35
-49.59
-49.06
-45.73
-39.89
-31.76
-21.40
-8.84
5.60
20.99
35.88
48.75
58.60
65.32
69.59
72.30
74.05
74.86
74.30
71.95
67.72
61.91
55.09
47.82
40.56
33.56
27.00
20.96
15.43
10.24
5.06
-0.49
-6.64
-13.33
-20.13
-26.35
-31.27
-34.40
-35.69
-35.51
-34.47
-33.07
-31.44
-29.31
-26.24
-21.97
-16.60
-10.70
-5.01
-0.26
3.08
4.80
4.88
3.41
0.53
-3.45
-7.98
-12.29
-15.49
-16.85
-16.06
-13.36
-9.34
-4.74
-0.09
4.44
8.93
13.54
18.23
22.79
26.91
30.44
33.45
36.18
38.91
41.80
44.94
48.45
52.56
57.49
63.16
68.89
73.42
75.35
73.80
69.03
62.43
55.97
51.38
49.49
50.21
52.88
56.93
62.11
68.37
75.46
82.55
88.33
91.37
90.71
86.18
78.39
68.48
57.67
46.90
36.67
27.06
17.80
8.64
-0.43
-9.05
-16.66
-22.88
-27.80
-31.91
-35.76
-39.43
-42.44
-43.98
-43.66
-41.99
-40.40
-40.63
-43.85
-50.12
-58.35
-66.92
-74.40
-79.93
-83.28
-84.51
-83.83
-81.58
-78.38
-75.18
-72.89
-72.00
-72.20
-72.41
-71.31
-67.90
-61.98
-54.10
-45.29
-36.55
-28.61
-21.82
-16.31
-12.04
-8.93
-6.85
-5.63
-5.10
-5.04
-5.20
-5.15
-4.46
-2.70
0.32
4.42
9.12
13.77
17.70
20.39
21.44
20.74
18.51
15.46
12.63
11.05
11.34
13.23
15.73
17.54
17.76
16.26
13.71
11.10
9.13
7.97
7.31
6.72
6.04
5.41
5.08
5.12
5.34
5.41
5.17
4.79
4.71
5.42
7.12
9.66
12.60
15.43
17.77
19.40
20.31
20.54
20.11
18.99
17.08
14.22
10.19
4.88
-1.62
-8.87
-16.08
-22.37
-27.09
-30.08
-31.69
-32.52
-33.02
-33.25
-32.90
-31.54
-28.98
-25.45
-21.54
-18.03
-15.57
-14.49
-14.71
-15.80
-17.00
-17.39
-16.13
-12.75
-7.30
-0.43
6.97
14.05
20.35
25.82
30.62
34.87
38.39
40.81
41.72
40.92
38.50
34.80
30.21
25.02
19.36
13.30
6.86
0.23
-6.28
-12.20
-16.98
-20.17
-21.54
-21.19
-19.59
-17.42
-15.36
-13.81
-12.77
-11.93
-10.79
-8.96
-6.34
-3.18
0.02
2.72
4.60
5.71
6.44
7.41
9.22
12.23
16.45
21.51
26.67
30.88
32.95
31.85
26.94
18.29
6.68
-6.65
-20.32
-33.37
-45.49
-57.04
-68.73
-81.10
-94.11
-106.98
-118.38
-126.93
-131.73
-132.67
-130.34
-125.63
-119.21
-111.33
-101.89
-90.90
-78.78
-66.45
-54.98
-45.07
-36.71
-29.34
-22.33
-15.47
-9.22
-4.53
-2.20
-2.40
-4.39
-6.87
-8.48
-8.47
-6.92
-4.61
-2.58
-1.54
-1.66
-2.51
-3.37
-3.64
-2.94
-1.22
1.37
4.69
8.65
13.14
17.92
22.62
26.80
30.16
32.64
34.53
36.25
38.19
40.50
43.12
45.93
48.91
52.14
55.65
59.17
62.08
63.50
62.80
59.98
55.82
51.61
48.67
47.72
48.73
50.89
53.08
54.28
53.84
51.54
47.48
41.92
35.15
27.42
19.07
10.42
1.92
-6.05
-13.13
-19.06
-23.68
-26.86
-28.51
-28.56
-27.08
-24.29
-20.56
-16.27
-11.75
-7.12
-2.39
2.47
7.35
12.01
16.05
19.11
20.92
21.39
20.64
18.91
16.53
13.85
11.06
8.17
4.93
0.92
-4.21
-10.60
-17.99
-25.89
-33.70
-41.06
-47.90
-54.43
-60.97
-67.69
-74.57
-81.39
-87.78
-93.28
-97.25
-98.94
-97.64
-92.90
-84.89
-74.36
-62.47
-50.36
-38.70
-27.55
-16.55
-5.27
6.40
18.15
29.31
39.24
47.48
53.83
58.27
60.85
61.54
60.29
57.10
52.05
45.45
37.76
29.61
21.56
14.06
7.34
1.47
-3.64
-8.10
-11.91
-14.98
-17.14
-18.25
-18.27
-17.26
-15.26
-12.23
-7.94
-2.09
5.53
14.79
25.16
35.73
45.51
53.65
59.67
63.52
65.48
65.95
65.30
63.70
61.15
57.46
52.40
45.87
37.98
29.14
19.98
11.14
3.11
-3.89
-9.81
-14.71
-18.50
-21.05
-22.17
-21.91
-20.59
-18.85
-17.47
-17.11
-18.14
-20.46
-23.63
-27.02
-30.03
-32.25
-33.51
-33.93
-33.74
-33.17
-32.30
-31.01
-29.04
-26.06
-21.86
-16.48
-10.25
-3.73
2.38
7.49
11.21
13.45
14.41
14.42
13.85
13.00
12.11
11.34
10.83
10.59
10.51
10.30
9.57
7.98
5.38
1.85
-2.30
-6.74
-11.19
-15.48
-19.47
-23.02
-25.87
-27.74
-28.33
-27.52
-25.34
-22.07
-18.13
-14.01
-10.16
-6.95
-4.64
-3.46
-3.63
-5.29
-8.43
-12.77
-17.76
-22.69
-26.88
-29.93
-31.79
-32.72
-33.05
-33.02
-32.65
-31.76
-30.12
-27.64
-24.48
-21.08
-17.99
-15.80
-14.94
-15.60
-17.75
-21.15
-25.38
-29.88
-34.02
-37.12
-38.67
-38.39
-36.31
-32.78
-28.37
-23.72
-19.35
-15.60
-12.63
-10.44
-8.93
-8.01
-7.56
-7.46
-7.57
-7.67
-7.52
-6.81
-5.25
-2.66
0.93
5.24
9.84
14.17
17.78
20.36
21.77
22.02
21.23
19.53
17.11
14.17
10.93
7.59
4.32
1.23
-1.61
-4.05
-5.89
-6.76
-6.29
-4.16
-0.25
5.28
11.91
18.91
25.40
30.61
34.02
35.47
35.12
33.38
30.72
27.59
24.38
21.35
18.74
16.71
15.34
14.57
14.22
14.02
13.73
13.22
12.51
11.72
11.03
10.49
10.01
9.36
8.32
6.71
4.56
2.04
-0.51
-2.69
-4.09
-4.34
-3.19
-0.57
3.44
8.55
14.38
20.47
26.36
31.65
36.00
39.21
41.10
41.64
40.93
39.16
36.67
33.85
31.10
28.77
27.09
26.05
25.51
25.18
24.74
23.95
22.69
21.00
18.95
16.62
14.01
11.08
7.75
4.02
-0.01
-4.11
-7.89
-10.94
-12.80
-13.12
-11.78
-8.89
-4.76
0.20
5.52
10.82
15.81
20.26
23.98
26.80
28.60
29.33
29.08
28.08
26.64
25.07
23.62
22.40
21.43
20.61
19.79
18.84
17.66
16.28
14.88
13.72
13.05
12.89
12.99
12.81
11.71
9.25
5.36
0.40
-4.95
-9.89
-13.73
-15.98
-16.41
-15.00
-11.93
-7.52
-2.17
3.57
9.19
14.16
18.07
20.63
21.75
21.51
20.16
18.08
15.63
13.14
10.77
8.56
6.42
4.25
2.00
-0.30
-2.49
-4.39
-5.89
-7.04
-8.08
-9.30
-10.95
-13.12
-15.74
-18.63
-21.64
-24.69
-27.72
-30.62
-33.04
-34.45
-34.23
-31.92
-27.39
-20.95
-13.30
-5.29
2.29
8.86
14.10
17.92
20.38
21.65
21.92
21.46
20.58
19.60
18.73
18.04
17.47
16.86
16.06
14.95
13.52
11.78
9.76
7.48
4.89
2.00
-1.17
-4.53
-7.95
-11.32
-14.57
-17.75
-20.98
-24.44
-28.27
-32.46
-36.70
-40.35
-42.46
-42.07
-38.49
-31.67
-22.31
-11.69
-1.34
7.42
13.86
17.84
19.77
20.21
19.64
18.27
16.15
13.30
9.87
6.31
3.20
1.20
0.99
3.17
8.40
17.26
30.09
46.66
65.85
85.67
103.62
117.42
125.67
128.22
125.97
120.26
112.14
101.93
89.22
73.41
54.28
32.49
9.55
-12.55
-31.90
-47.14
-57.66
-63.53
-65.26
-63.58
-59.35
-53.51
-47.02
-40.76
-35.41
-31.24
-28.19
-25.91
-24.00
-22.21
-20.54
-19.19
-18.43
-18.37
-18.92
-19.78
-20.61
-21.18
-21.52
-21.85
-22.39
-23.19
-24.10
-24.78
-24.98
-24.65
-23.94
-23.14
-22.51
-22.19
-22.23
-22.62
-23.37
-24.38
-25.36
-25.77
-24.89
-22.10
-17.13
-10.26
-2.21
6.04
13.62
19.94
24.78
28.16
30.25
31.24
31.38
30.92
30.17
29.38
28.69
28.07
27.39
26.53
25.49
24.45
23.73
23.62
24.24
25.40
26.62
27.25
26.74
24.84
21.67
17.67
13.40
9.38
5.88
2.88
0.14
-2.76
-6.23
-10.52
-15.61
-21.14
-26.42
-30.64
-33.15
-33.62
-32.17
-29.18
-25.17
-20.53
-15.55
-10.44
-5.45
-0.92
2.81
5.51
7.19
8.07
8.57
9.12
10.03
11.41
13.13
14.85
16.17
16.82
16.77
16.28
15.77
15.59
15.85
16.39
16.86
16.97
16.62
15.93
15.16
14.55
14.27
14.47
15.30
16.89
19.32
22.35
25.51
28.14
29.72
30.01
29.15
27.48
25.32
22.77
19.68
15.86
11.30
6.32
1.53
-2.40
-4.96
-6.04
-5.88
-4.97
-3.82
-2.90
-2.49
-2.81
-4.07
-6.45
-10.07
-14.89
-20.60
-26.72
-32.77
-38.40
-43.47
-48.01
-52.07
-55.65
-58.67
-61.03
-62.66
-63.59
-63.88
-63.59
-62.78
-61.46
-59.70
-57.52
-55.03
-52.30
-49.42
-46.36
-42.97
-38.97
-33.95
-27.46
-19.20
-9.12
2.56
15.36
28.68
41.87
54.31
65.43
74.69
81.61
85.82
87.14
85.63
81.64
75.70
68.48
60.67
52.81
45.27
38.25
31.85
26.08
20.95
16.40
12.21
8.10
3.76
-0.94
-5.95
-10.98
-15.65
-19.65
-22.83
-25.24
-27.07
-28.55
-29.87
-31.19
-32.56
-33.87
-34.89
-35.27
-34.63
-32.72
-29.45
-25.00
-19.73
-14.13
-8.70
-3.83
0.26
3.44
5.70
7.09
7.70
7.74
7.42
7.01
6.66
6.38
6.04
5.48
4.63
3.59
2.62
2.01
1.84
1.95
1.99
1.59
0.59
-0.95
-2.73
-4.46
-5.96
-7.30
-8.74
-10.57
-12.93
-15.69
-18.58
-21.32
-23.80
-26.16
-28.59
-31.19
-33.70
-35.65
-36.47
-35.76
-33.47
-29.86
-25.40
-20.52
-15.55
-10.74
-6.26
-2.25
1.21
4.09
6.42
8.21
9.39
9.82
9.37
8.08
6.14
3.88
1.60
-0.48
-2.29
-3.89
-5.33
-6.64
-7.83
-8.87
-9.78
-10.58
-11.35
-12.18
-13.19
-14.54
-16.35
-18.68
-21.47
-24.59
-27.86
-31.07
-34.00
-36.31
-37.60
-37.44
-35.60
-32.15
-27.54
-22.44
-17.54
-13.28
-9.82
-7.05
-4.83
-3.06
-1.76
-0.95
-0.61
-0.57
-0.61
-0.54
-0.27
0.17
0.69
1.25
1.90
2.71
3.77
5.03
6.36
7.53
8.24
8.34
7.79
6.77
5.57
4.51
3.71
3.09
2.36
1.20
-0.64
-3.18
-6.24
-9.47
-12.46
-14.79
-16.13
-16.23
-15.02
-12.60
-9.27
-5.43
-1.49
2.21
5.51
8.31
10.60
12.34
13.59
14.39
14.91
15.31
15.70
16.14
16.57
16.94
17.26
17.61
18.14
18.91
19.93
21.05
22.06
22.78
23.05
22.83
22.13
20.99
19.47
17.66
15.62
13.44
11.15
8.73
6.15
3.33
0.20
-3.30
-7.11
-11.09
-14.99
-18.42
-20.98
-22.33
-22.24
-20.65
-17.70
-13.61
-8.75
-3.47
1.85
6.88
11.38
15.15
18.07
20.09
21.15
21.28
20.57
19.18
17.38
15.43
13.56
11.87
10.36
8.91
7.45
5.95
4.48
3.12
1.89
0.66
-0.75
-2.50
-4.64
-7.05
-9.53
-11.87
-13.98
-15.85
-17.57
-19.23
-20.90
-22.64
-24.47
-26.35
-28.10
-29.41
-29.88
-29.16
-27.13
-23.97
-20.07
-15.88
-11.68
-7.53
-3.30
1.08
5.51
9.67
13.10
15.48
16.67
16.83
16.27
15.34
14.32
13.39
12.63
12.08
11.72
11.54
11.45
11.36
11.15
10.71
9.94
8.81
7.36
5.67
3.87
2.04
0.16
-1.83
-3.98
-6.30
-8.74
-11.20
-13.54
-15.63
-17.26
-18.24
-18.33
-17.35
-15.25
-12.16
-8.34
-4.11
0.19
4.32
8.12
11.50
14.40
16.78
18.54
19.66
20.14
20.12
19.85
19.60
19.55
19.67
19.71
19.35
18.38
16.83
14.93
13.04
11.34
9.81
8.24
6.45
4.41
2.30
0.33
-1.40
-3.00
-4.74
-6.87
-9.47
-12.37
-15.26
-17.87
-20.05
-21.91
-23.56
-25.04
-26.20
-26.69
-26.18
-24.43
-21.42
-17.38
-12.66
-7.62
-2.50
2.49
7.25
11.63
15.46
18.55
20.78
22.14
22.78
22.92
22.79
22.60
22.40
22.18
21.83
21.24
20.39
19.31
18.17
17.12
16.29
15.65
15.03
14.16
12.85
11.01
8.76
6.31
3.88
1.60
-0.59
-2.78
-5.09
-7.57
-10.17
-12.84
-15.52
-18.14
-20.60
-22.66
-24.00
-24.28
-23.26
-20.92
-17.46
-13.24
-8.69
-4.15
0.15
4.09
7.62
10.71
13.32
15.39
16.84
17.64
17.81
17.46
16.75
15.86
14.92
13.99
13.05
12.08
11.11
10.16
9.30
8.52
7.79
7.03
6.16
5.17
4.05
2.79
1.34
-0.37
-2.40
-4.73
-7.24
-9.71
-11.92
-13.70
-15.06
-16.14
-17.22
-18.54
-20.22
-22.13
-23.93
-25.17
-25.38
-24.24
-21.60
-17.52
-12.26
-6.28
-0.16
5.44
9.91
12.87
14.16
13.91
12.46
10.24
7.71
5.29
3.33
2.01
1.37
1.26
1.36
1.38
1.13
0.61
-0.03
-0.58
-0.95
-1.19
-1.52
-2.14
-3.18
-4.62
-6.26
-7.91
-9.38
-10.65
-11.78
-12.94
-14.30
-15.95
-17.92
-20.03
-21.99
-23.46
-24.08
-23.64
-22.10
-19.56
-16.19
-12.17
-7.65
-2.81
2.07
6.68
10.70
13.94
16.37
18.10
19.29
20.04
20.34
20.18
19.61
18.81
18.04
17.49
17.25
17.20
17.11
16.76
16.09
15.18
14.16
13.12
12.02
10.69
8.95
6.76
4.22
1.57
-0.93
-3.19
-5.23
-7.22
-9.29
-11.53
-13.95
-16.51
-19.16
-21.74
-23.96
-25.38
-25.53
-24.09
-21.05
-16.75
-11.73
-6.50
-1.40
3.41
7.90
11.97
15.50
18.31
20.31
21.53
22.16
22.39
22.43
22.37
22.26
22.10
21.88
21.55
21.09
20.43
19.56
18.46
17.20
15.84
14.40
12.91
11.28
9.44
7.33
4.96
2.46
0.01
-2.18
-4.03
-5.61
-7.14
-8.95
-11.25
-14.10
-17.41
-20.93
-24.37
-27.43
-29.82
-31.20
-31.28
-29.82
-26.75
-22.24
-16.69
-10.55
-4.29
1.77
7.41
12.48
16.86
20.43
23.14
25.03
26.24
27.05
27.73
28.48
29.33
30.16
30.73
30.82
30.29
29.16
27.59
25.76
23.86
21.97
20.10
18.24
16.33
14.36
12.28
10.02
7.49
4.60
1.33
-2.30
-6.16
-10.10
-13.93
-17.47
-20.63
-23.42
-25.97
-28.48
-31.03
-33.56
-35.77
-37.18
-37.30
-35.76
-32.50
-27.76
-22.02
-15.84
-9.72
-4.05
0.95
5.17
8.54
11.06
12.70
13.50
13.58
13.08
12.22
11.18
10.11
9.06
7.97
6.75
5.35
3.79
2.18
0.63
-0.77
-2.03
-3.28
-4.70
-6.43
-8.50
-10.83
-13.27
-15.63
-17.75
-19.53
-20.88
-21.81
-22.39
-22.85
-23.48
-24.54
-26.14
-28.16
-30.20
-31.70
-32.06
-30.84
-27.86
-23.26
-17.47
-11.08
-4.67
1.26
6.43
10.71
14.14
16.81
18.83
20.31
21.30
21.86
22.00
21.80
21.34
20.73
20.08
19.45
18.82
18.10
17.21
16.10
14.79
13.39
11.97
10.53
8.96
7.16
5.04
2.64
0.12
-2.37
-4.68
-6.78
-8.76
-10.74
-12.88
-15.30
-18.01
-20.95
-23.86
-26.38
-28.00
-28.22
-26.66
-23.21
-18.13
-11.93
-5.22
1.40
7.51
12.88
17.44
21.12
23.92
25.84
26.95
27.38
27.35
27.06
26.64
26.16
25.51
24.57
23.18
21.27
18.89
16.23
13.58
11.21
9.30
7.86
6.72
5.63
4.34
2.68
0.60
-1.89
-4.67
-7.60
-10.46
-13.05
-15.27
-17.12
-18.79
-20.61
-22.89
-25.76
-29.04
-32.20
-34.46
-35.08
-33.53
-29.72
-24.01
-17.12
-9.87
-2.97
3.12
8.24
12.44
15.84
18.55
20.66
22.23
23.35
24.12
24.63
24.98
25.22
25.35
25.31
25.00
24.32
23.24
21.80
20.20
18.63
17.28
16.16
15.10
13.79
11.95
9.43
6.32
2.86
-0.66
-4.02
-7.12
-9.96
-12.58
-15.00
-17.22
-19.29
-21.28
-23.35
-25.58
-27.90
-30.01
-31.37
-31.40
-29.60
-25.83
-20.32
-13.68
-6.66
-0.00
5.81
10.56
14.24
16.96
18.77
19.67
19.62
18.64
16.87
14.62
12.27
10.16
8.47
7.19
6.09
4.99
3.75
2.45
1.23
0.22
-0.66
-1.61
-2.93
-4.74
-6.95
-9.20
-11.11
-12.42
-13.16
-13.61
-14.17
-15.17
-16.77
-18.87
-21.19
-23.37
-24.99
-25.62
-24.91
-22.55
-18.41
-12.51
-5.14
3.26
12.06
20.57
28.17
34.31
38.66
41.07
41.59
40.39
37.79
34.16
29.88
25.36
20.90
16.75
12.94
9.38
5.87
2.22
-1.68
-5.75
-9.78
-13.57
-16.97
-19.97
-22.64
-25.06
-27.24
-29.11
-30.58
-31.62
-32.34
-32.93
-33.62
-34.57
-35.73
-36.90
-37.74
-37.78
-36.60
-33.84
-29.40
-23.47
-16.54
-9.24
-2.19
4.23
9.83
14.65
18.72
22.00
24.34
25.64
25.98
25.58
24.78
23.79
22.63
21.10
18.99
16.19
12.88
9.36
6.03
3.12
0.70
-1.33
-3.18
-5.01
-6.93
-8.95
-10.99
-12.88
-14.40
-15.39
-15.83
-15.88
-15.96
-16.50
-17.84
-20.01
-22.67
-25.21
-26.93
-27.20
-25.67
-22.30
-17.31
-11.10
-4.13
3.16
10.43
17.47
24.15
30.37
35.94
40.54
43.84
45.55
45.67
44.48
42.49
40.25
38.16
36.35
34.79
33.36
31.99
30.69
29.48
28.30
27.00
25.36
23.19
20.37
16.94
13.04
8.89
4.70
0.65
-3.22
-6.95
-10.72
-14.75
-19.24
-24.23
-29.53
-34.70
-39.13
-42.16
-43.30
-42.33
-39.35
-34.83
-29.40
-23.69
-18.18
-13.13
-8.65
-4.80
-1.64
0.72
2.20
2.86
2.89
2.62
2.34
2.24
2.32
2.42
2.39
2.11
1.55
0.75
-0.24
-1.39
-2.72
-4.24
-5.96
-7.87
-9.94
-12.11
-14.35
-16.66
-19.10
-21.75
-24.69
-27.92
-31.38
-34.89
-38.17
-40.86
-42.55
-42.80
-41.28
-37.85
-32.68
-26.25
-19.21
-12.20
-5.63
0.35
5.76
10.61
14.81
18.22
20.69
22.27
23.18
23.78
24.36
25.06
25.77
26.29
26.42
26.13
25.57
24.97
24.49
24.13
23.68
22.84
21.41
19.31
16.73
13.96
11.30
8.89
6.66
4.39
1.75
-1.50
-5.52
-10.26
-15.44
-20.60
-25.13
-28.38
-29.81
-29.13
-26.29
-21.57
-15.48
-8.64
-1.66
4.96
10.91
16.03
20.28
23.69
26.29
28.10
29.15
29.48
29.21
28.51
27.65
26.84
26.24
25.82
25.41
24.73
23.58
21.90
19.82
17.58
15.40
13.31
11.22
8.91
6.26
3.25
0.06
-3.08
-6.01
-8.70
-11.32
-14.09
-17.20
-20.75
-24.64
-28.66
-32.42
-35.42
-37.09
-36.90
-34.53
-30.01
-23.76
-16.57
-9.29
-2.62
3.10
7.88
11.97
15.60
18.87
21.69
23.93
25.49
26.41
26.80
26.86
26.71
26.44
26.10
25.71
25.36
25.12
25.02
25.02
24.94
24.55
23.59
21.88
19.39
16.29
12.87
9.48
6.35
3.56
1.01
-1.48
-4.05
-6.74
-9.47
-12.16
-14.78
-17.45
-20.36
-23.70
-27.47
-31.49
-35.34
-38.49
-40.40
-40.62
-38.92
-35.26
-29.83
-23.06
-15.55
-7.92
-0.74
5.62
11.05
15.63
19.54
22.90
25.73
27.96
29.48
30.27
30.36
29.91
29.05
27.88
26.50
25.00
23.53
22.21
21.13
20.23
19.35
18.25
16.74
14.74
12.34
9.71
7.01
4.36
1.78
-0.74
-3.27
-5.83
-8.48
-11.22
-14.02
-16.81
-19.47
-21.93
-24.25
-26.55
-29.07
-31.93
-35.09
-38.27
-40.92
-42.46
-42.40
-40.49
-36.76
-31.51
-25.21
-18.38
-11.49
-4.95
0.95
6.00
10.07
13.09
15.05
16.06
16.26
15.90
15.26
14.60
14.13
13.98
14.16
14.55
14.96
15.17
15.03
14.50
13.67
12.69
11.68
10.69
9.60
8.29
6.66
4.70
2.50
0.18
-2.16
-4.48
-6.76
-8.99
-11.12
-13.10
-14.95
-16.78
-18.80
-21.20
-23.97
-26.85
-29.27
-30.61
-30.32
-28.17
-24.31
-19.23
-13.61
-8.10
-3.19
0.88
4.14
6.75
8.95
10.89
12.58
13.95
14.86
15.25
15.17
14.79
14.32
13.91
13.60
13.36
13.07
12.70
12.23
11.69
11.10
10.37
9.38
8.02
6.34
4.50
2.76
1.36
0.30
-0.62
-1.72
-3.24
-5.18
-7.33
-9.37
-11.11
-12.54
-13.87
-15.36
-17.20
-19.40
-21.73
-23.82
-25.15
-25.19
-23.58
-20.20
-15.34
-9.57
-3.59
2.05
7.07
11.52
15.52
19.15
22.25
24.51
25.56
25.16
23.34
20.34
16.54
12.32
8.06
4.02
0.46
-2.45
-4.55
-5.86
-6.49
-6.76
-7.02
-7.64
-8.80
-10.49
-12.43
-14.25
-15.52
-16.00
-15.61
-14.50
-12.90
-11.11
-9.36
-7.84
-6.70
-6.03
-5.87
-6.21
-6.98
-8.20
-9.92
-12.22
-15.08
-18.27
-21.28
-23.44
-24.08
-22.83
-19.67
-14.97
-9.24
-2.98
3.46
9.88
16.14
22.10
27.58
32.42
36.56
40.07
43.10
45.79
48.20
50.22
51.67
52.35
52.18
51.23
49.69
47.76
45.60
43.23
40.54
37.38
33.63
29.24
24.29
18.89
13.18
7.26
1.21
-4.93
-11.11
-17.26
-23.30
-29.16
-34.78
-40.10
-45.04
-49.47
-53.27
-56.37
-58.81
-60.74
-62.35
-63.66
-64.45
-64.25
-62.47
-58.67
-52.76
-45.17
-36.69
-28.21
-20.41
-13.59
-7.66
-2.41
2.36
6.60
10.19
12.94
14.89
16.23
17.25
18.20
19.18
20.16
21.08
21.96
22.84
23.77
24.64
25.28
25.48
25.13
24.26
22.98
21.42
19.64
17.68
15.62
13.65
11.96
10.66
9.73
8.98
8.19
7.22
6.08
4.86
3.68
2.59
1.64
0.93
0.66
1.15
2.68
5.42
9.34
14.22
19.67
25.17
30.19
34.22
36.92
38.20
38.21
37.27
35.77
34.02
32.21
30.43
28.68
26.88
24.92
22.63
19.89
16.74
13.39
10.23
7.63
5.81
4.64
3.69
2.31
-0.07
-3.79
-8.72
-14.38
-20.05
-25.05
-29.04
-32.05
-34.46
-36.71
-39.12
-41.72
-44.28
-46.39
-47.59
-47.37
-45.31
-41.15
-34.97
-27.30
-19.07
-11.39
-5.12
-0.73
1.83
2.93
2.98
2.25
0.88
-1.05
-3.34
-5.67
-7.64
-8.89
-9.25
-8.77
-7.69
-6.27
-4.71
-3.11
-1.41
0.47
2.60
4.91
7.21
9.17
10.39
10.49
9.19
6.43
2.36
-2.58
-7.80
-12.70
-16.83
-20.05
-22.43
-24.14
-25.30
-25.89
-25.71
-24.57
-22.34
-19.13
-15.23
-11.02
-6.83
-2.81
1.03
4.77
8.41
11.84
14.83
17.19
18.80
19.76
20.26
20.49
20.57
20.51
20.30
19.93
19.51
19.17
19.00
18.96
18.90
18.66
18.14
17.41
16.61
15.92
15.43
15.13
14.92
14.65
14.25
13.75
13.29
13.08
13.29
13.98
15.04
16.12
16.68
16.05
13.63
9.12
2.60
-5.38
-13.92
-22.03
-28.82
-33.73
-36.56
-37.45
-36.73
-34.81
-32.07
-28.88
-25.63
-22.68
-20.36
-18.88
-18.24
-18.27
-18.65
-19.05
-19.20
-19.02
-18.55
-17.93
-17.32
-16.87
-16.59
-16.44
-16.28
-15.95
-15.43
-14.80
-14.29
-14.13
-14.45
-15.24
-16.31
-17.45
-18.49
-19.38
-20.17
-20.97
-21.82
-22.69
-23.42
-23.79
-23.51
-22.25
-19.71
-15.71
-10.26
-3.61
3.81
11.42
18.64
25.01
30.24
34.22
36.96
38.55
39.06
38.54
37.01
34.57
31.40
27.73
23.89
20.15
16.79
13.96
11.72
10.00
8.73
7.79
7.06
6.39
5.66
4.76
3.62
2.27
0.80
-0.61
-1.86
-2.94
-4.07
-5.57
-7.80
-10.99
-15.13
-19.93
-24.91
-29.44
-32.92
-34.83
-34.88
-33.08
-29.75
-25.45
-20.77
-16.12
-11.65
-7.25
-2.80
1.69
5.92
9.39
11.67
12.60
12.41
11.62
10.84
10.45
10.60
11.17
11.95
12.79
13.67
14.61
15.68
16.91
18.25
19.61
20.89
21.96
22.70
22.98
22.62
21.51
19.65
17.15
14.22
11.13
8.03
4.91
1.56
-2.32
-6.94
-12.25
-17.93
-23.38
-27.96
-31.09
-32.48
-32.14
-30.39
-27.69
-24.50
-21.11
-17.62
-13.98
-10.09
-5.98
-1.76
2.40
6.42
10.40
14.61
19.30
24.56
30.11
35.37
39.68
42.56
43.92
44.04
43.40
42.37
41.06
39.23
36.47
32.44
27.05
20.50
13.23
5.70
-1.74
-8.89
-15.75
-22.35
-28.75
-34.90
-40.69
-45.80
-49.83
-52.22
-52.36
-49.69
-43.98
-35.52
-25.21
-14.41
-4.49
3.55
9.48
13.78
17.32
20.97
25.21
30.00
34.95
39.46
42.99
45.10
45.48
43.94
40.56
35.70
30.02
24.32
19.35
15.52
12.94
11.36
10.37
9.55
8.57
7.23
5.46
3.32
0.96
-1.41
-3.59
-5.51
-7.19
-8.83
-10.63
-12.79
-15.40
-18.40
-21.67
-25.05
-28.43
-31.76
-35.07
-38.44
-41.88
-45.36
-48.66
-51.43
-53.18
-53.37
-51.51
-47.33
-40.89
-32.61
-23.20
-13.44
-4.03
4.64
12.48
19.62
26.17
32.20
37.58
42.08
45.41
47.34
47.68
46.25
43.03
38.15
32.00
25.19
18.39
12.20
6.93
2.65
-0.79
-3.61
-5.99
-8.07
-9.96
-11.74
-13.59
-15.66
-18.05
-20.75
-23.59
-26.37
-28.87
-31.00
-32.81
-34.40
-35.85
-37.03
-37.63
-37.27
-35.55
-32.12
-26.85
-19.76
-11.22
-1.99
6.91
14.34
19.43
21.87
21.96
20.44
18.17
15.71
13.35
11.13
9.01
7.08
5.48
4.29
3.48
2.90
2.32
1.55
0.53
-0.74
-2.15
-3.54
-4.80
-5.88
-6.87
-7.98
-9.40
-11.23
-13.34
-15.40
-16.98
-17.78
-17.79
-17.29
-16.79
-16.82
-17.81
-19.92
-23.04
-26.81
-30.67
-33.96
-36.03
-36.34
-34.58
-30.67
-24.80
-17.33
-8.76
0.40
9.60
18.39
26.35
33.12
38.38
41.92
43.60
43.37
41.29
37.51
32.23
25.71
18.23
10.17
1.91
-6.13
-13.64
-20.45
-26.52
-31.87
-36.43
-39.99
-42.20
-42.76
-41.58
-38.88
-35.16
-30.97
-26.74
-22.61
-18.47
-14.09
-9.35
-4.36
0.57
4.91
8.16
9.88
9.90
8.38
5.77
2.81
0.25
-1.28
-1.52
-0.57
1.18
3.19
5.02
6.37
7.07
7.10
6.45
5.15
3.29
1.06
-1.25
-3.27
-4.71
-5.31
-4.95
-3.66
-1.56
1.09
3.95
6.67
8.95
10.57
11.48
11.70
11.36
10.54
9.30
7.70
5.75
3.50
1.01
-1.65
-4.41
-7.15
-9.75
-12.07
-13.99
-15.46
-16.51
-17.29
-18.04
-18.92
-20.02
-21.21
-22.13
-22.31
-21.30
-18.87
-15.09
-10.24
-4.77
0.96
6.69
12.21
17.33
21.75
25.17
27.41
28.49
28.68
28.34
27.84
27.35
26.89
26.41
25.88
25.25
24.50
23.55
22.28
20.63
18.60
16.28
13.79
11.27
8.77
6.37
4.14
2.14
0.42
-1.11
-2.53
-3.94
-5.28
-6.42
-7.16
-7.42
-7.29
-6.94
-6.48
-5.81
-4.60
-2.52
0.71
5.00
10.03
15.33
20.41
24.94
28.66
31.42
33.04
33.34
32.17
29.50
25.47
20.42
14.81
9.12
3.73
-1.17
-5.50
-9.26
-12.40
-14.76
-16.18
-16.52
-15.81
-14.24
-12.09
-9.67
-7.14
-4.57
-1.90
1.00
4.21
7.83
11.94
16.53
21.50
26.49
30.85
33.72
34.22
31.68
25.96
17.53
7.34
-3.40
-13.49
-22.10
-28.73
-33.29
-35.86
-36.67
-35.98
-34.11
-31.39
-28.11
-24.48
-20.52
-16.17
-11.24
-5.67
0.53
7.22
14.19
21.30
28.39
35.30
41.69
47.09
51.03
53.14
53.29
51.64
48.48
44.13
38.92
33.16
27.21
21.43
16.10
11.27
6.75
2.21
-2.64
-7.87
-13.34
-18.77
-23.97
-28.90
-33.60
-38.11
-42.23
-45.61
-47.67
-47.93
-46.10
-42.18
-36.47
-29.50
-21.88
-14.20
-6.96
-0.49
5.02
9.48
12.83
15.02
16.06
16.10
15.45
14.56
13.92
13.84
14.36
15.34
16.50
17.63
18.60
19.44
20.19
20.91
21.58
22.15
22.52
22.52
21.92
20.49
18.12
14.86
10.99
6.93
3.06
-0.40
-3.43
-6.14
-8.68
-11.19
-13.83
-16.72
-19.95
-23.45
-26.85
-29.54
-30.84
-30.21
-27.53
-23.14
-17.72
-11.99
-6.51
-1.55
2.84
6.77
10.26
13.29
15.80
17.81
19.47
21.13
23.28
26.46
31.07
37.29
45.03
53.86
63.15
72.12
79.94
85.86
89.30
89.89
87.55
82.42
74.82
65.14
53.78
41.10
27.48
13.32
-0.92
-14.80
-27.89
-39.92
-50.82
-60.68
-69.67
-77.90
-85.19
-91.04
-94.73
-95.60
-93.37
-88.35
-81.38
-73.51
-65.60
-58.03
-50.74
-43.38
-35.72
-27.75
-19.68
-11.75
-4.07
3.37
10.60
17.44
23.53
28.34
31.44
32.67
32.18
30.33
27.60
24.36
20.85
17.17
13.31
9.19
4.73
-0.09
-5.21
-10.43
-15.46
-20.03
-23.96
-27.27
-30.14
-32.80
-35.49
-38.32
-41.30
-44.31
-47.09
-49.26
-50.33
-49.82
-47.40
-43.05
-37.06
-29.97
-22.35
-14.54
-6.72
1.07
8.70
15.86
22.11
27.05
30.52
32.68
33.91
34.64
35.12
35.41
35.42
35.05
34.36
33.54
32.84
32.41
32.21
32.04
31.60
30.69
29.26
27.42
25.32
23.03
20.47
17.47
13.88
9.71
5.15
0.54
-3.79
-7.67
-11.11
-14.37
-17.72
-21.29
-25.00
-28.44
-31.03
-32.11
-31.14
-27.78
-21.88
-13.48
-2.75
9.96
24.08
38.78
52.99
65.55
75.49
82.26
85.84
86.70
85.52
82.95
79.36
74.82
69.26
62.66
55.12
46.84
37.98
28.57
18.59
8.04
-2.83
-13.52
-23.38
-31.82
-38.57
-43.77
-47.86
-51.45
-54.97
-58.57
-62.05
-65.05
-67.26
-68.59
-69.27
-69.71
-70.31
-71.30
-72.64
-74.07
-75.15
-75.40
-74.34
-71.59
-66.96
-60.51
-52.61
-43.81
-34.70
-25.70
-17.00
-8.55
-0.14
8.48
17.43
26.64
35.84
44.62
52.54
59.24
64.49
68.11
69.93
69.86
67.88
64.23
59.36
53.87
48.30
42.85
37.37
31.37
24.42
16.34
7.37
-1.94
-10.86
-18.80
-25.41
-30.66
-34.68
-37.79
-40.29
-42.45
-44.51
-46.56
-48.57
-50.39
-51.68
-52.06
-51.19
-48.83
-44.95
-39.73
-33.46
-26.47
-19.00
-11.17
-3.02
5.35
13.63
21.31
27.76
32.50
35.42
36.80
37.18
37.08
36.70
35.97
34.56
32.27
29.13
25.46
21.72
18.26
15.24
12.54
9.96
7.27
4.33
1.15
-2.14
-5.29
-8.06
-10.25
-11.82
-12.87
-13.69
-14.61
-15.92
-17.84
-20.31
-23.09
-25.68
-27.48
-27.96
-26.82
-24.08
-20.10
-15.44
-10.66
-6.19
-2.30
0.95
3.55
5.54
6.94
7.82
8.30
8.56
8.77
9.05
9.47
9.98
10.48
10.86
11.04
11.01
10.84
10.64
10.49
10.41
10.35
10.21
9.89
9.28
8.36
7.15
5.71
4.18
2.70
1.38
0.29
-0.59
-1.40
-2.34
-3.58
-5.22
-7.19
-9.23
-10.95
-11.94
-11.85
-10.53
-8.05
-4.68
-0.83
3.06
6.64
9.72
12.28
14.43
16.29
17.96
19.43
20.61
21.43
21.84
21.88
21.66
21.32
20.97
20.71
20.62
20.70
20.97
21.33
21.63
21.70
21.36
20.43
18.83
16.53
13.59
10.21
6.65
3.26
0.31
-2.01
-3.77
-5.22
-6.72
-8.66
-11.21
-14.39
-18.02
-21.88
-25.68
-29.18
-32.03
-33.85
-34.21
-32.85
-29.74
-25.22
-19.87
-14.32
-9.06
-4.37
-0.28
3.25
6.24
8.66
10.52
11.92
13.06
14.12
15.14
16.06
16.67
16.90
16.79
16.57
16.48
16.64
16.95
17.17
17.04
16.45
15.49
14.33
13.08
11.70
10.02
7.86
5.19
2.18
-0.91
-3.79
-6.37
-8.66
-10.79
-12.84
-14.79
-16.60
-18.26
-19.86
-21.59
-23.54
-25.59
-27.37
-28.32
-27.98
-26.14
-22.98
-18.95
-14.58
-10.28
-6.23
-2.45
1.06
4.22
6.88
8.85
10.07
10.64
10.81
10.83
10.91
11.14
11.57
12.16
12.88
13.68
14.45
15.10
15.55
15.79
15.91
16.05
16.30
16.65
16.92
16.93
16.57
15.90
15.14
14.50
14.09
13.85
13.59
13.18
12.62
11.98
11.34
10.60
9.56
7.98
5.86
3.51
1.52
0.56
1.04
3.00
6.09
9.79
13.65
17.37
20.89
24.27
27.55
30.68
33.54
35.98
37.90
39.23
39.97
40.10
39.51
38.04
35.43
31.47
26.12
19.62
12.50
5.39
-1.14
-6.87
-11.95
-16.74
-21.59
-26.62
-31.66
-36.31
-40.23
-43.29
-45.56
-47.27
-48.64
-49.76
-50.66
-51.36
-51.99
-52.74
-53.72
-54.82
-55.71
-55.95
-55.18
-53.24
-50.32
-46.80
-43.15
-39.69
-36.52
-33.63
-30.87
-28.17
-25.54
-23.03
-20.79
-18.87
-17.13
-15.36
-13.35
-11.02
-8.54
-6.19
-4.14
-2.67
-1.72
-1.07
-0.48
0.14
0.74
1.15
1.21
1.15
0.62
-0.43
-2.01
-4.10
-6.65
-9.51
-12.51
-15.45
-17.60
-19.44
-21.01
-22.38
-23.55
-24.41
-24.62
-23.53
-20.24
-12.89
-1.23
15.29
36.50
61.40
88.29
115.11
139.85
156.09
168.03
174.57
175.60
171.30
162.08
148.70
132.34
114.47
96.51
80.26
65.43
51.81
38.79
25.75
12.34
-1.43
-15.18
-28.43
-40.14
-50.61
-59.80
-67.79
-74.68
-80.50
-85.18
-88.66
-90.86
-91.46
-90.96
-89.66
-87.93
-86.15
-84.66
-83.60
-82.98
-82.60
-81.96
-80.82
-78.80
-75.68
-71.29
-65.69
-59.03
-51.62
-43.86
-36.11
-28.82
-22.25
-16.53
-11.69
-7.72
-4.64
-2.44
-0.99
-0.03
0.81
1.89
3.39
5.27
7.36
9.48
11.73
14.46
18.21
23.47
30.46
38.95
48.25
57.33
65.06
70.46
72.88
72.20
68.74
63.19
56.33
48.83
41.13
33.41
25.73
18.19
11.06
4.79
-0.09
-3.15
-4.17
-3.23
-0.68
3.01
7.40
12.09
16.78
21.15
24.85
27.48
28.77
28.66
27.48
25.79
24.20
23.10
22.44
21.74
20.31
17.61
13.46
8.14
2.31
-3.39
-8.50
-12.90
-16.74
-20.22
-23.44
-26.43
-29.12
-31.48
-33.65
-35.71
-37.73
-39.59
-41.09
-42.01
-42.29
-42.02
-41.43
-40.81
-40.34
-40.12
-40.08
-40.08
-39.95
-39.51
-38.60
-37.06
-34.79
-31.76
-28.11
-24.04
-19.84
-15.74
-11.92
-8.41
-5.12
-2.00
0.97
3.65
5.85
7.35
8.09
8.11
7.62
6.85
5.98
5.09
4.17
3.24
2.40
1.78
1.54
1.76
2.34
3.06
3.63
3.83
3.62
3.13
2.56
2.02
1.54
0.96
0.14
-1.03
-2.54
-4.25
-5.96
-7.50
-8.70
-9.46
-9.69
-9.38
-8.49
-7.01
-4.93
-2.30
0.76
3.95
6.93
9.36
11.06
12.05
12.49
12.57
12.33
11.75
10.75
9.36
7.73
6.12
4.79
3.86
3.28
2.91
2.60
2.25
1.95
1.77
1.82
2.03
2.24
2.27
2.00
1.47
0.90
0.48
0.30
0.29
0.22
-0.19
-1.05
-2.33
-3.87
-5.52
-7.16
-8.72
-10.09
-11.04
-11.24
-10.45
-8.65
-6.01
-2.91
0.33
3.53
6.64
9.70
12.60
15.16
17.10
18.25
18.61
18.35
17.69
16.73
15.48
13.90
12.02
9.97
7.97
6.18
4.63
3.17
1.59
-0.24
-2.30
-4.47
-6.64
-8.78
-11.01
-13.43
-16.05
-18.73
-21.19
-23.18
-24.62
-25.63
-26.44
-27.31
-28.33
-29.45
-30.51
-31.30
-31.70
-31.62
-30.95
-29.50
-26.99
-23.17
-17.91
-11.36
-3.96
3.61
10.64
16.59
21.21
24.58
26.94
28.57
29.64
30.20
30.28
29.99
29.48
28.92
28.39
27.87
27.24
26.38
25.28
24.04
22.85
21.84
21.11
20.59
20.14
19.56
18.65
17.25
15.32
12.95
10.37
7.91
5.88
4.41
3.45
2.76
2.03
1.00
-0.44
-2.24
-4.29
-6.47
-8.66
-10.72
-12.42
-13.47
-13.56
-12.52
-10.44
-7.59
-4.42
-1.30
1.51
3.96
6.09
7.95
9.55
10.81
11.70
12.27
12.60
12.84
13.09
13.38
13.66
13.87
13.96
13.90
13.74
13.49
13.15
12.70
12.07
11.25
10.18
8.86
7.22
5.17
2.62
-0.50
-4.20
-8.49
-13.32
-18.61
-24.27
-30.13
-35.99
-41.62
-46.82
-51.40
-55.19
-57.95
-59.37
-59.09
-56.84
-52.59
-46.61
-39.44
-31.69
-23.95
-16.59
-9.79
-3.65
1.75
6.34
10.08
13.04
15.41
17.48
19.48
21.57
23.78
26.05
28.30
30.47
32.54
34.49
36.31
37.96
39.37
40.47
41.16
41.40
41.18
40.61
39.91
39.35
39.21
39.75
41.21
43.74
47.39
51.98
57.04
61.83
65.45
67.06
66.13
62.56
56.72
49.29
41.03
32.56
24.26
16.35
8.88
1.92
-4.43
-10.05
-14.89
-19.05
-22.77
-26.40
-30.23
-34.32
-38.52
-42.44
-45.65
-47.85
-48.94
-49.05
-48.48
-47.52
-46.35
-45.01
-43.50
-41.84
-40.22
-38.97
-38.46
-38.88
-40.18
-41.95
-43.67
-44.86
-45.33
-45.22
-44.86
-44.62
-44.72
-45.23
-46.02
-47.01
-48.00
-48.75
-48.89
-47.95
-45.56
-41.61
-36.45
-30.74
-25.24
-20.51
-16.71
-13.67
-11.01
-8.47
-6.01
-3.76
-1.89
-0.40
0.88
2.22
3.82
5.71
7.77
9.81
11.73
13.56
15.37
17.22
19.04
20.68
22.04
23.06
23.78
24.26
24.52
24.48
24.03
23.08
21.61
19.67
17.35
14.79
12.12
9.52
7.12
5.01
3.16
1.41
-0.42
-2.47
-4.62
-6.56
-7.76
-7.76
-6.33
-3.57
0.05
3.93
7.52
10.46
12.67
14.24
15.34
16.06
16.48
16.65
16.66
16.68
16.84
17.22
17.74
18.20
18.37
18.06
17.24
15.99
14.57
13.22
12.17
11.49
11.09
10.76
10.25
9.36
8.01
6.29
4.38
2.47
0.67
-1.09
-2.95
-5.08
-7.61
-10.52
-13.69
-16.91
-19.92
-22.44
-24.21
-24.98
-24.63
-23.16
-20.68
-17.38
-13.55
-9.43
-5.27
-1.34
2.16
5.04
7.21
8.64
9.38
9.55
9.32
8.90
8.48
8.25
8.25
8.40
8.51
8.41
8.04
7.50
6.94
6.49
6.17
5.84
5.31
4.44
3.18
1.64
-0.00
-1.57
-2.96
-4.19
-5.33
-6.53
-7.95
-9.66
-11.63
-13.68
-15.44
-16.48
-16.38
-14.93
-12.16
-8.32
-3.78
1.05
5.87
10.44
14.59
18.14
20.92
22.80
23.75
23.89
23.49
22.89
22.35
22.05
21.99
22.03
22.01
21.81
21.36
20.66
19.74
18.59
17.16
15.38
13.26
10.89
8.42
6.01
3.75
1.63
-0.44
-2.54
-4.75
-7.15
-9.82
-12.83
-16.22
-19.89
-23.50
-26.53
-28.40
-28.61
-26.96
-23.60
-18.95
-13.58
-8.00
-2.63
2.26
6.45
9.86
12.42
14.21
15.35
16.04
16.50
16.90
17.33
17.77
18.08
18.09
17.67
16.80
15.61
14.30
13.06
11.95
10.89
9.71
8.21
6.38
4.29
2.14
0.08
-1.79
-3.48
-5.08
-6.71
-8.53
-10.69
-13.33
-16.52
-20.11
-23.77
-26.93
-28.95
-29.28
-27.60
-23.98
-18.85
-12.87
-6.76
-1.07
3.86
7.95
11.28
13.98
16.16
17.91
19.28
20.33
21.11
21.66
22.03
22.25
22.34
22.32
22.24
22.10
21.86
21.42
20.65
19.46
17.87
15.99
13.96
11.95
10.03
8.20
6.39
4.54
2.68
0.91
-0.66
-2.00
-3.22
-4.53
-6.15
-8.25
-10.81
-13.74
-16.84
-19.90
-22.66
-24.78
-25.87
-25.54
-23.58
-20.03
-15.28
-9.93
-4.62
0.22
4.40
8.01
11.19
14.05
16.58
18.63
20.11
20.99
21.37
21.41
21.23
20.87
20.28
19.40
18.20
16.75
15.19
13.67
12.27
11.02
9.87
8.76
7.67
6.59
5.50
4.31
2.89
1.12
-1.00
-3.35
-5.73
-7.90
-9.74
-11.21
-12.41
-13.47
-14.50
-15.65
-17.02
-18.67
-20.52
-22.33
-23.68
-24.11
-23.26
-21.07
-17.81
-13.92
-9.91
-6.11
-2.66
0.45
3.33
6.06
8.64
10.96
12.90
14.27
14.99
15.03
14.52
13.66
12.71
11.87
11.23
10.73
10.25
9.63
8.79
7.79
6.73
5.79
5.04
4.47
3.93
3.21
2.15
0.72
-1.00
-2.78
-4.41
-5.77
-6.91
-7.94
-9.04
-10.29
-11.74
-13.42
-15.38
-17.63
-20.09
-22.44
-24.20
-24.82
-23.98
-21.65
-18.23
-14.29
-10.37
-6.80
-3.64
-0.79
1.88
4.41
6.72
8.68
10.17
11.18
11.75
11.98
11.98
11.84
11.64
11.38
11.05
10.62
10.07
9.40
8.67
7.90
7.11
6.31
5.48
4.62
3.71
2.75
1.72
0.61
-0.54
-1.67
-2.70
-3.55
-4.17
-4.61
-4.96
-5.37
-6.00
-7.01
-8.54
-10.60
-13.08
-15.66
-17.86
-19.21
-19.38
-18.30
-16.22
-13.56
-10.73
-8.02
-5.50
-3.17
-0.99
1.02
2.80
4.28
5.42
6.28
6.92
7.40
7.76
8.03
8.20
8.29
8.33
8.29
8.18
7.94
7.55
6.95
6.09
4.93
3.42
1.62
-0.42
-2.54
-4.61
-6.48
-8.07
-9.37
-10.43
-11.43
-12.57
-13.99
-15.78
-17.86
-20.01
-21.92
-23.24
-23.70
-23.16
-21.62
-19.24
-16.26
-12.92
-9.47
-6.08
-2.87
0.12
2.87
5.38
7.60
9.43
10.76
11.45
11.49
11.02
10.33
9.76
9.56
9.81
10.33
10.86
11.09
10.87
10.23
9.33
8.34
7.36
6.40
5.37
4.15
2.68
0.94
-0.98
-2.97
-4.95
-6.92
-8.89
-10.94
-13.13
-15.48
-17.91
-20.29
-22.35
-23.84
-24.50
-24.19
-22.89
-20.73
-17.89
-14.52
-10.78
-6.72
-2.47
1.80
5.88
9.58
12.77
15.45
17.65
19.39
20.66
21.44
21.75
21.69
21.45
21.14
20.82
20.47
20.04
19.52
18.93
18.28
17.55
16.64
15.47
14.00
12.31
10.51
8.69
6.82
4.85
2.70
0.41
-1.88
-4.00
-5.83
-7.41
-8.88
-10.48
-12.39
-14.65
-17.12
-19.46
-21.28
-22.16
-21.85
-20.31
-17.72
-14.45
-10.95
-7.64
-4.73
-2.28
-0.12
1.90
3.88
5.74
7.32
8.41
8.93
8.95
8.66
8.32
8.07
7.93
7.80
7.49
6.88
5.93
4.66
3.13
1.40
-0.51
-2.61
-4.86
-7.17
-9.44
-11.56
-13.45
-15.10
-16.54
-17.82
-18.99
-20.16
-21.47
-23.07
-25.06
-27.37
-29.74
-31.71
-32.79
-32.57
-30.87
-27.81
-23.75
-19.17
-14.55
-10.26
-6.51
-3.35
-0.74
1.44
3.23
4.66
5.74
6.49
7.03
7.53
8.19
9.15
10.41
11.89
13.45
15.05
16.80
18.85
21.32
24.08
26.78
28.90
29.99
29.83
28.49
26.22
23.31
19.94
16.11
11.78
6.96
1.80
-3.47
-8.58
-13.26
-17.31
-20.53
-22.78
-23.88
-23.79
-22.55
-20.32
-17.36
-13.96
-10.40
-6.89
-3.63
-0.79
1.52
3.21
4.32
4.98
5.34
5.61
5.92
6.31
6.79
7.27
7.60
7.66
7.40
6.88
6.27
5.78
5.50
5.32
4.97
4.14
2.73
0.86
-1.14
-2.92
-4.33
-5.45
-6.55
-7.89
-9.63
-11.76
-14.24
-16.96
-19.78
-22.45
-24.59
-25.75
-25.54
-23.79
-20.63
-16.46
-11.72
-6.84
-2.12
2.30
6.30
9.82
12.77
15.11
16.79
17.87
18.44
18.69
18.82
18.99
19.26
19.59
19.81
19.79
19.51
19.04
18.54
18.05
17.52
16.74
15.54
13.85
11.76
9.52
7.33
5.33
3.50
1.72
-0.14
-2.17
-4.39
-6.75
-9.20
-11.76
-14.45
-17.33
-20.42
-23.57
-26.45
-28.60
-29.55
-28.98
-26.87
-23.48
-19.31
-14.82
-10.32
-5.94
-1.62
2.64
6.71
10.30
13.10
14.92
15.77
15.93
15.71
15.36
14.96
14.43
13.70
12.76
11.73
10.80
10.13
9.75
9.63
9.71
9.92
10.22
10.53
10.70
10.47
9.61
8.01
5.76
3.16
0.60
-1.60
-3.32
-4.66
-5.90
-7.36
-9.25
-11.66
-14.48
-17.54
-20.54
-23.12
-24.84
-25.28
-24.16
-21.45
-17.43
-12.60
-7.54
-2.71
1.64
5.49
8.87
11.79
14.09
15.58
16.10
15.67
14.53
13.04
11.53
10.27
9.31
8.60
7.99
7.40
6.76
6.09
5.40
4.73
4.01
3.15
2.05
0.65
-1.03
-2.84
-4.59
-6.08
-7.21
-8.01
-8.65
-9.38
-10.40
-11.84
-13.73
-16.03
-18.59
-21.19
-23.48
-25.02
-25.37
-24.24
-21.61
-17.70
-12.90
-7.65
-2.23
3.23
8.75
14.35
19.94
25.30
30.08
33.93
36.61
38.07
38.47
38.15
37.49
36.79
36.16
35.53
34.73
33.57
31.96
29.91
27.50
24.84
21.99
19.00
15.86
12.60
9.24
5.77
2.20
-1.48
-5.27
-9.07
-12.75
-16.16
-19.18
-21.83
-24.18
-26.31
-28.17
-29.60
-30.30
-29.97
-28.43
-25.66
-21.79
-17.10
-11.93
-6.69
-1.77
2.52
5.99
8.57
10.36
11.51
12.18
12.54
12.67
12.65
12.51
12.26
11.86
11.31
10.62
9.88
9.25
8.84
8.67
8.63
8.51
8.13
7.35
6.14
4.50
2.45
0.04
-2.62
-5.33
-7.80
-9.78
-11.15
-12.02
-12.76
-13.79
-15.51
-18.05
-21.24
-24.65
-27.71
-29.87
-30.75
-30.15
-28.05
-24.60
-20.12
-15.05
-9.85
-4.99
-0.76
2.68
5.39
7.54
9.28
10.70
11.79
12.52
12.84
12.81
12.53
12.18
11.92
11.86
12.05
12.44
12.93
13.39
13.68
13.68
13.28
12.42
11.05
9.24
7.10
4.80
2.50
0.34
-1.62
-3.41
-5.14
-6.96
-9.00
-11.35
-13.99
-16.84
-19.72
-22.40
-24.71
-26.58
-28.05
-29.16
-29.85
-29.84
-28.55
-25.23
-19.09
-9.48
3.91
20.96
40.95
62.62
84.24
103.87
119.72
130.48
135.52
134.91
129.15
118.88
104.62
86.85
66.12
43.37
19.91
-2.72
-23.06
-40.08
-53.41
-63.27
-70.23
-74.97
-78.02
-79.70
-80.12
-79.34
-77.45
-74.71
-71.45
-68.08
-64.89
-61.99
-59.28
-56.54
-53.59
-50.39
-47.13
-44.05
-41.40
-39.27
-37.60
-36.23
-34.97
-33.64
-32.10
-30.17
-27.69
-24.55
-20.70
-16.20
-11.19
-5.88
-0.51
4.62
9.24
13.14
16.22
18.48
20.01
20.90
21.24
21.11
20.63
20.07
19.71
19.85
20.55
21.63
22.68
23.27
23.16
22.36
21.11
19.74
18.46
17.29
16.11
14.76
13.18
11.40
9.49
7.50
5.41
3.15
0.69
-1.94
-4.74
-7.66
-10.74
-13.95
-17.23
-20.37
-23.05
-24.92
-25.69
-25.22
-23.55
-20.85
-17.37
-13.35
-9.04
-4.60
-0.19
4.00
7.81
11.06
13.61
15.44
16.64
17.35
17.74
17.94
18.05
18.15
18.32
18.61
19.00
19.41
19.73
19.88
19.88
19.86
19.92
20.07
20.20
20.00
19.20
17.54
14.97
11.52
7.36
2.67
-2.36
-7.54
-12.68
-17.59
-22.17
-26.37
-30.24
-33.85
-37.24
-40.25
-42.59
-43.83
-43.58
-41.62
-37.96
-32.86
-26.66
-19.76
-12.54
-5.37
1.35
7.23
11.92
15.28
17.35
18.37
18.66
18.50
18.05
17.36
16.47
15.41
14.20
12.88
11.47
9.96
8.35
6.65
4.87
2.99
1.01
-1.09
-3.24
-5.35
-7.30
-8.97
-10.29
-11.23
-11.79
-12.05
-12.16
-12.34
-12.86
-13.97
-15.84
-18.49
-21.81
-25.56
-29.38
-32.83
-35.41
-36.63
-36.08
-33.63
-29.49
-24.14
-18.26
-12.44
-7.07
-2.25
2.10
6.07
9.63
12.61
14.80
16.11
16.67
16.71
16.49
16.15
15.70
15.07
14.27
13.41
12.72
12.38
12.50
13.02
13.74
14.42
14.80
14.66
13.89
12.49
10.57
8.35
6.04
3.84
1.82
0.01
-1.60
-2.95
-3.89
-4.17
-3.45
-1.30
2.70
8.84
17.05
26.75
36.83
45.86
52.48
55.81
55.65
52.45
47.07
40.44
33.34
26.32
19.75
13.87
8.81
4.65
1.28
-1.50
-3.95
-6.32
-8.73
-11.18
-13.55
-15.61
-17.12
-17.88
-17.84
-17.13
-16.10
-15.17
-14.75
-15.12
-16.34
-18.25
-20.56
-22.99
-25.38
-27.70
-30.04
-32.46
-34.96
-37.42
-39.61
-41.20
-41.87
-41.30
-39.33
-35.90
-31.17
-25.48
-19.30
-13.12
-7.34
-2.22
2.10
5.61
8.28
10.15
11.25
11.68
11.57
11.07
10.27
9.23
8.01
6.71
5.48
4.60
4.36
5.07
6.96
10.12
14.45
19.65
25.25
30.69
35.44
39.17
41.74
43.17
43.55
42.89
41.03
37.78
32.99
26.78
19.58
12.14
5.34
-0.03
-3.43
-4.73
-4.18
-2.33
0.17
2.70
4.83
6.33
7.14
7.27
6.76
5.60
3.79
1.37
-1.49
-4.49
-7.19
-9.16
-10.03
-9.69
-8.28
-6.19
-3.93
-1.97
-0.65
-0.08
-0.17
-0.73
-1.58
-2.61
-3.77
-5.07
-6.53
-8.13
-9.89
-11.80
-13.92
-16.40
-19.43
-23.14
-27.38
-31.70
-35.38
-37.56
-37.59
-35.24
-30.75
-24.68
-17.74
-10.50
-3.39
3.35
9.47
14.70
18.82
21.68
23.37
24.16
24.43
24.54
24.69
24.93
25.16
25.21
24.94
24.32
23.38
22.29
21.22
20.33
19.64
19.03
18.23
16.91
14.88
12.17
9.10
6.12
3.57
1.58
-0.04
-1.67
-3.66
-6.14
-9.08
-12.29
-15.58
-18.77
-21.65
-23.90
-25.11
-24.90
-23.09
-19.83
-15.57
-10.85
-6.09
-1.46
3.03
7.38
11.40
14.78
17.15
18.37
18.63
18.37
18.09
18.08
18.26
18.35
18.09
17.44
16.64
16.00
15.68
15.53
15.21
14.42
13.09
11.44
9.79
8.33
6.99
5.50
3.60
1.20
-1.53
-4.30
-6.85
-9.12
-11.23
-13.43
-15.93
-18.83
-22.04
-25.28
-28.12
-30.08
-30.73
-29.83
-27.43
-23.78
-19.33
-14.52
-9.77
-5.40
-1.61
1.48
3.88
5.67
6.97
7.86
8.34
8.39
7.98
7.22
6.33
5.54
5.07
4.96
5.14
5.48
5.87
6.26
6.59
6.78
6.65
6.09
5.09
3.81
2.51
1.40
0.52
-0.26
-1.14
-2.26
-3.69
-5.41
-7.42
-9.74
-12.39
-15.28
-18.09
-20.31
-21.42
-21.00
-18.95
-15.48
-11.06
-6.28
-1.61
2.66
6.45
9.81
12.79
15.34
17.28
18.42
18.64
18.03
16.89
15.60
14.54
13.89
13.67
13.72
13.84
13.87
13.70
13.30
12.67
11.78
10.63
9.24
7.66
5.95
4.17
2.40
0.66
-1.00
-2.60
-4.12
-5.60
-7.07
-8.57
-10.17
-11.97
-14.00
-16.25
-18.62
-20.88
-22.67
-23.59
-23.26
-21.45
-18.22
-13.88
-8.91
-3.86
0.87
5.03
8.55
11.46
13.78
15.48
16.53
16.92
16.73
16.12
15.28
14.40
13.58
12.89
12.37
12.05
11.98
12.13
12.40
12.60
12.45
11.76
10.49
8.77
6.87
5.10
3.61
2.43
1.46
0.53
-0.41
-1.43
-2.49
-3.61
-4.83
-6.22
-7.75
-9.35
-10.93
-12.49
-14.10
-15.88
-17.83
-19.66
-20.93
-21.14
-20.00
-17.65
-14.52
-11.21
-8.16
-5.49
-3.02
-0.47
2.36
5.45
8.60
11.57
14.20
16.53
18.73
21.08
23.75
26.79
30.07
33.34
36.32
38.80
40.68
41.94
42.60
42.68
42.17
41.10
39.54
37.65
35.55
33.34
31.03
28.56
25.93
23.22
20.60
18.31
16.55
15.44
15.01
15.20
15.91
17.10
18.72
20.76
23.19
25.89
28.60
30.89
32.19
31.92
29.62
25.17
18.83
11.18
2.96
-5.17
-12.71
-19.43
-25.25
-30.18
-34.28
-37.60
-40.27
-42.42
-44.17
-45.60
-46.70
-47.32
-47.35
-46.66
-45.23
-43.14
-40.58
-37.76
-34.82
-31.89
-28.99
-26.19
-23.54
-21.14
-19.03
-17.21
-15.60
-14.13
-12.82
-11.77
-11.15
-11.02
-11.30
-11.79
-12.23
-12.53
-12.75
-13.11
-13.81
-14.94
-16.37
-17.84
-19.00
-19.53
-19.20
-17.93
-15.79
-13.01
-9.90
-6.83
-4.08
-1.82
-0.04
1.36
2.48
3.36
4.01
4.39
4.49
4.33
3.92
3.30
2.46
1.37
0.04
-1.48
-3.11
-4.70
-6.11
-7.24
-8.06
-8.60
-8.92
-9.11
-9.24
-9.39
-9.60
-9.91
-10.36
-10.91
-11.49
-11.99
-12.27
-12.27
-12.02
-11.64
-11.30
-11.18
-11.40
-11.99
-12.93
-14.14
-15.43
-16.54
-17.10
-16.75
-15.27
-12.68
-9.30
-5.68
-2.44
-0.00
1.52
2.29
2.64
2.87
3.13
3.34
3.37
3.14
2.73
2.33
2.15
2.28
2.66
3.17
3.71
4.27
4.90
5.60
6.28
6.78
6.94
6.68
6.07
5.23
4.26
3.19
1.98
0.58
-0.97
-2.56
-4.06
-5.35
-6.44
-7.38
-8.24
-9.12
-10.04
-11.04
-12.21
-13.59
-15.19
-16.87
-18.29
-19.01
-18.66
-17.08
-14.45
-11.20
-7.84
-4.74
-2.02
0.41
2.68
4.83
6.78
8.38
9.57
10.41
11.09
11.77
12.53
13.32
13.95
14.30
14.31
14.12
13.91
13.87
14.07
14.38
14.58
14.42
13.76
12.66
11.28
9.84
8.46
7.09
5.61
3.85
1.83
-0.36
-2.53
-4.53
-6.30
-7.91
-9.46
-11.03
-12.68
-14.40
-16.13
-17.74
-19.02
-19.70
-19.47
-18.06
-15.42
-11.70
-7.27
-2.63
1.74
5.48
8.41
10.54
11.94
12.72
12.99
12.83
12.34
11.60
10.67
9.59
8.40
7.16
5.97
4.97
4.23
3.77
3.53
3.45
3.43
3.41
3.34
3.15
2.75
2.09
1.16
-0.01
-1.36
-2.83
-4.40
-6.06
-7.77
-9.51
-11.24
-13.01
-14.93
-17.14
-19.69
-22.46
-25.10
-27.16
-28.18
-27.86
-26.16
-23.31
-19.73
-15.88
-12.14
-8.80
-6.02
-3.91
-2.49
-1.76
-1.64
-1.95
-2.45
-2.95
-3.34
-3.64
-3.94
-4.33
-4.79
-5.22
-5.45
-5.34
-4.89
-4.25
-3.72
-3.60
-4.07
-5.19
-6.85
-8.84
-10.87
-12.67
-14.06
-14.93
-15.39
-15.70
-16.23
-17.33
-19.19
-21.69
-24.47
-26.97
-28.62
-29.00
-27.93
-25.43
-21.74
-17.23
-12.32
-7.43
-2.91
1.04
4.34
7.02
9.16
10.84
12.12
13.02
13.64
14.05
14.37
14.65
14.85
14.84
14.49
13.72
12.64
11.44
10.31
9.31
8.33
7.16
5.59
3.52
1.02
-1.67
-4.34
-6.83
-9.08
-11.15
-13.18
-15.28
-17.53
-19.89
-22.21
-24.14
-25.22
-24.97
-22.99
-19.18
-13.68
-6.95
0.45
7.90
14.95
21.34
26.98
31.87
35.95
39.12
41.26
42.26
42.19
41.29
39.81
37.95
35.78
33.25
30.34
27.11
23.76
20.55
17.71
15.28
13.21
11.34
9.54
7.69
5.73
3.62
1.40
-0.89
-3.12
-5.21
-7.12
-8.93
-10.82
-13.00
-15.61
-18.65
-21.90
-24.95
-27.24
-28.21
-27.45
-24.82
-20.52
-15.02
-8.88
-2.54
3.70
9.72
15.47
20.85
25.68
29.68
32.65
34.52
35.38
35.44
34.99
34.29
33.53
32.73
31.84
30.70
29.23
27.44
25.49
23.61
21.98
20.63
19.44
18.14
16.44
14.10
11.06
7.40
3.39
-0.70
-4.56
-8.06
-11.21
-14.18
-17.22
-20.53
-24.24
-28.30
-32.53
-36.53
-39.78
-41.69
-41.70
-39.50
-35.11
-28.96
-21.70
-14.08
-6.75
-0.12
5.58
10.25
13.83
16.33
17.80
18.40
18.39
18.05
17.61
17.20
16.88
16.56
16.16
15.59
14.83
13.88
12.84
11.82
10.91
10.04
9.01
7.54
5.39
2.52
-0.91
-4.56
-8.10
-11.32
-14.17
-16.80
-19.40
-22.18
-25.32
-28.94
-32.98
-37.15
-40.91
-43.53
-44.26
-42.62
-38.51
-32.27
-24.55
-16.15
-7.80
-0.10
6.57
12.00
16.12
18.95
20.67
21.57
21.98
22.22
22.51
22.87
23.13
23.07
22.57
21.69
20.67
19.81
19.29
19.10
18.98
18.55
17.45
15.49
12.69
9.28
5.60
1.98
-1.35
-4.32
-7.03
-9.72
-12.67
-16.13
-20.21
-24.85
-29.71
-34.26
-37.76
-39.51
-38.97
-35.91
-30.51
-23.26
-14.88
-6.15
2.27
9.94
16.59
22.12
26.45
29.54
31.31
31.74
31.05
29.64
28.02
26.67
25.86
25.52
25.40
25.14
24.53
23.49
22.18
20.77
19.41
18.09
16.62
14.73
12.19
8.92
5.09
1.02
-2.93
-6.51
-9.68
-12.54
-15.29
-18.13
-21.19
-24.56
-28.26
-32.14
-35.85
-38.80
-40.28
-39.63
-36.54
-31.12
-23.86
-15.51
-6.83
1.56
9.26
16.03
21.75
26.39
29.97
32.61
34.49
35.86
36.94
37.89
38.75
39.44
39.79
39.64
38.94
37.77
36.32
34.79
33.28
31.73
29.99
27.89
25.33
22.33
18.96
15.38
11.70
8.03
4.44
1.02
-2.21
-5.22
-8.08
-10.88
-13.75
-16.85
-20.27
-23.99
-27.80
-31.24
-33.72
-34.60
-33.41
-29.98
-24.50
-17.46
-9.54
-1.44
6.25
13.13
19.00
23.81
27.53
30.18
31.78
32.39
32.17
31.36
30.27
29.14
28.11
27.20
26.39
25.64
24.91
24.18
23.42
22.56
21.50
20.21
18.65
16.84
14.78
12.42
9.73
6.64
3.09
-0.93
-5.40
-10.18
-15.06
-19.84
-24.29
-28.27
-31.79
-34.92
-37.74
-40.26
-42.38
-43.79
-44.09
-42.85
-39.77
-34.80
-28.23
-20.66
-12.82
-5.39
1.20
6.85
11.75
16.13
20.15
23.77
26.82
29.08
30.41
30.83
30.49
29.66
28.59
27.51
26.54
25.74
25.13
24.74
24.54
24.47
24.37
23.98
23.03
21.34
18.93
16.01
12.92
9.97
7.30
4.88
2.54
0.06
-2.76
-6.06
-9.90
-14.23
-18.76
-22.99
-26.30
-28.14
-28.28
-26.94
-24.65
-22.04
-19.62
-17.55
-15.81
-14.23
-12.72
-11.26
-9.91
-8.71
-7.71
-6.96
-6.60
-6.76
-7.52
-8.80
-10.41
-12.06
-13.57
-14.87
-16.01
-17.02
-17.89
-18.56
-18.97
-19.18
-19.28
-19.44
-19.74
-20.18
-20.68
-21.11
-21.44
-21.79
-22.36
-23.40
-25.13
-27.55
-30.40
-33.17
-35.18
-35.80
-34.61
-31.50
-26.71
-20.72
-14.05
-7.21
-0.60
5.49
10.80
15.13
18.36
20.45
21.52
21.79
21.52
20.97
20.30
19.57
18.78
17.92
16.98
16.01
15.07
14.23
13.50
12.85
12.21
11.49
10.55
9.20
7.21
4.44
0.86
-3.25
-7.46
-11.26
-14.30
-16.55
-18.32
-20.05
-22.12
-24.62
-27.37
-29.97
-32.00
-33.06
-32.84
-31.08
-27.70
-22.75
-16.52
-9.54
-2.44
4.20
10.01
14.80
18.57
21.40
23.35
24.50
24.95
24.85
24.42
23.89
23.43
23.17
23.11
23.18
23.29
23.35
23.31
23.16
22.87
22.41
21.74
20.78
19.48
17.81
15.77
13.48
11.03
8.56
6.20
3.97
1.83
-0.35
-2.74
-5.48
-8.66
-12.26
-16.12
-19.99
-23.52
-26.36
-28.13
-28.53
-27.40
-24.79
-20.93
-16.27
-11.28
-6.41
-1.99
1.81
4.91
7.27
8.83
9.61
9.63
9.06
8.14
7.14
6.23
5.49
4.87
4.28
3.55
2.58
1.29
-0.33
-2.23
-4.31
-6.45
-8.58
-10.65
-12.73
-14.93
-17.34
-19.93
-22.54
-24.96
-27.00
-28.54
-29.67
-30.53
-31.32
-32.20
-33.23
-34.33
-35.35
-36.04
-36.15
-35.40
-33.64
-30.86
-27.22
-23.04
-18.69
-14.46
-10.61
-7.23
-4.39
-2.08
-0.30
0.95
1.66
1.88
1.75
1.46
1.28
1.45
2.09
3.28
4.95
7.01
9.44
12.19
15.20
18.30
21.12
23.23
24.22
23.94
22.55
20.49
18.31
16.40
14.86
13.49
11.95
9.99
7.54
4.75
1.80
-1.16
-4.07
-6.84
-9.20
-10.72
-10.88
-9.34
-6.15
-1.78
3.02
7.56
11.41
14.51
17.03
19.18
21.01
22.37
23.02
22.83
21.87
20.47
19.12
18.16
17.69
17.49
17.16
16.35
15.02
13.44
12.10
11.47
11.82
13.12
15.21
17.91
21.24
25.42
30.80
37.67
46.07
55.73
66.03
76.06
84.71
90.89
93.69
92.62
87.89
80.42
71.64
63.18
56.30
51.60
48.77
46.82
44.44
40.55
34.61
26.64
17.13
6.74
-3.92
-14.34
-24.09
-32.76
-39.91
-45.21
-48.47
-49.75
-49.29
-47.44
-44.39
-40.26
-35.06
-28.95
-22.34
-15.87
-10.26
-6.11
-3.74
-3.18
-4.33
-6.99
-11.03
-16.26
-22.44
-29.23
-36.23
-43.06
-49.46
-55.23
-60.28
-64.56
-68.05
-70.83
-72.99
-74.59
-75.51
-75.47
-74.05
-70.85
-65.62
-58.44
-49.72
-40.11
-30.36
-21.13
-12.82
-5.49
1.07
7.16
13.00
18.55
23.53
27.52
30.19
31.45
31.46
30.63
29.38
28.01
26.60
25.03
23.09
20.59
17.44
13.60
9.09
3.98
-1.61
-7.38
-12.90
-17.64
-21.10
-22.95
-23.15
-21.87
-19.51
-16.55
-13.49
-10.79
-8.76
-7.49
-6.86
-6.50
-5.97
-4.86
-2.98
-0.36
2.75
5.97
8.90
11.25
12.81
13.52
13.43
12.61
11.17
9.19
6.78
4.13
1.45
-1.06
-3.32
-5.40
-7.41
-9.49
-11.59
-13.57
-15.19
-16.30
-16.88
-17.04
-17.00
-16.93
-16.98
-17.22
-17.68
-18.39
-19.34
-20.48
-21.72
-22.95
-24.13
-25.33
-26.60
-27.93
-29.10
-29.69
-29.20
-27.24
-23.75
-19.02
-13.65
-8.26
-3.36
0.81
4.27
7.09
9.33
10.97
11.93
12.21
11.97
11.46
10.99
10.74
10.74
10.86
10.89
10.69
10.21
9.57
8.92
8.41
8.06
7.81
7.48
6.93
6.16
5.27
4.47
3.94
3.75
3.83
4.03
4.20
4.24
4.13
3.85
3.38
2.73
2.09
1.85
2.56
4.83
9.06
15.25
23.00
31.56
40.11
47.94
54.56
59.63
62.89
64.03
62.81
59.14
53.26
45.83
37.75
29.94
23.06
17.33
12.60
8.50
4.72
1.16
-2.10
-4.85
-6.90
-8.18
-8.79
-8.91
-8.83
-8.85
-9.25
-10.22
-11.91
-14.31
-17.35
-20.86
-24.61
-28.34
-31.86
-35.08
-38.06
-40.95
-43.90
-46.92
-49.74
-51.87
-52.71
-51.76
-48.85
-44.17
-38.24
-31.72
-25.28
-19.39
-14.35
-10.30
-7.31
-5.38
-4.49
-4.51
-5.15
-6.04
-6.80
-7.22
-7.22
-6.91
-6.40
-5.79
-5.07
-4.15
-2.98
-1.60
-0.23
0.81
1.14
0.47
-1.40
-4.48
-8.60
-13.44
-18.55
-23.50
-27.93
-31.70
-34.86
-37.69
-40.49
-43.48
-46.66
-49.71
-52.08
-53.01
-51.77
-47.82
-40.94
-31.33
-19.62
-6.65
6.74
19.91
32.55
44.63
56.18
67.18
77.40
86.57
94.37
100.55
104.97
107.51
108.09
106.78
103.76
99.44
94.26
88.63
82.77
76.68
70.27
63.41
56.07
48.22
39.97
31.42
22.78
14.34
6.48
-0.51
-6.48
-11.55
-16.06
-20.41
-24.87
-29.42
-33.72
-37.18
-39.19
-39.33
-37.57
-34.28
-30.06
-25.62
-21.48
-17.93
-15.00
-12.60
-10.62
-8.99
-7.70
-6.67
-5.79
-4.87
-3.80
-2.64
-1.55
-0.79
-0.54
-0.82
-1.43
-2.05
-2.37
-2.26
-1.84
-1.47
-1.58
-2.46
-4.16
-6.50
-9.12
-11.67
-13.95
-15.93
-17.74
-19.58
-21.62
-23.97
-26.55
-29.11
-31.25
-32.43
-32.20
-30.28
-26.73
-21.87
-16.16
-10.09
-4.10
1.42
6.11
9.67
11.98
13.15
13.54
13.59
13.71
14.04
14.49
14.80
14.75
14.25
13.43
12.53
11.77
11.27
10.95
10.66
10.22
9.48
8.39
7.00
5.39
3.66
1.88
0.06
-1.84
-3.89
-6.17
-8.70
-11.46
-14.35
-17.27
-20.06
-22.51
-24.29
-24.99
-24.16
-21.50
-17.03
-11.11
-4.39
2.36
8.57
13.92
18.40
22.14
25.28
27.81
29.65
30.70
30.97
30.70
30.24
29.93
29.92
30.11
30.19
29.81
28.80
27.23
25.35
23.49
21.82
20.29
18.66
16.66
14.08
10.90
7.26
3.42
-0.38
-3.98
-7.30
-10.40
-13.44
-16.57
-19.91
-23.50
-27.24
-30.98
-34.41
-37.18
-38.85
-39.03
-37.41
-33.91
-28.70
-22.23
-15.09
-7.94
-1.34
4.39
9.07
12.70
15.34
17.09
18.07
18.49
18.59
18.62
18.77
19.09
19.51
19.91
20.25
20.57
21.01
21.68
22.55
23.47
24.20
24.55
24.39
23.71
22.53
20.89
18.85
16.48
13.87
11.13
8.31
5.41
2.45
-0.50
-3.27
-5.61
-7.33
-8.42
-9.12
-9.84
-11.00
-12.72
-14.72
-16.30
-16.58
-14.79
-10.62
-4.35
3.18
10.78
17.18
21.38
22.74
21.16
16.98
10.95
3.87
-3.54
-11.01
-18.84
-27.80
-38.94
-52.95
-69.85
-88.74
-107.92
-125.48
-139.85
-150.21
-156.51
-159.11
-158.28
-153.86
-145.33
-132.13
-114.18
-92.07
-67.08
-40.80
-14.77
9.79
31.99
51.17
66.77
78.27
85.35
88.04
86.90
82.98
77.54
71.86
66.79
62.70
59.50
56.90
54.70
52.94
51.84
51.72
52.65
54.41
56.44
57.99
58.27
56.64
52.72
46.36
37.73
27.26
15.56
3.31
-8.88
-20.53
-31.31
-40.88
-48.78
-54.42
-57.20
-56.77
-53.21
-47.14
-39.67
-32.08
-25.55
-20.85
-18.24
-17.53
-18.21
-19.71
-21.51
-23.26
-24.76
-25.99
-27.01
-27.97
-29.01
-30.22
-31.60
-33.05
-34.36
-35.24
-35.37
-34.46
-32.32
-28.95
-24.51
-19.33
-13.79
-8.24
-2.86
2.25
7.09
11.66
15.90
19.72
23.03
25.78
28.02
29.77
31.04
31.78
31.90
31.39
30.35
29.00
27.64
26.52
25.76
25.26
24.77
23.97
22.62
20.67
18.23
15.50
12.63
9.65
6.49
3.10
-0.48
-4.11
-7.60
-10.89
-14.04
-17.20
-20.43
-23.63
-26.51
-28.63
-29.56
-29.04
-26.99
-23.51
-18.78
-13.04
-6.62
0.06
6.39
11.72
15.43
17.19
17.04
15.39
12.88
10.17
7.68
5.62
3.99
2.77
2.01
1.78
2.08
2.78
3.57
4.13
4.27
3.97
3.36
2.65
1.97
1.37
0.90
0.67
0.80
1.39
2.36
3.47
4.38
4.86
4.89
4.68
4.59
4.90
5.70
6.84
8.11
9.39
10.76
12.47
14.79
17.85
21.57
25.69
29.85
33.74
37.12
39.78
41.55
42.29
41.93
40.51
38.10
34.77
30.52
25.22
18.79
11.31
3.11
-5.25
-13.14
-20.10
-26.01
-31.05
-35.55
-39.77
-43.72
-47.21
-49.94
-51.63
-52.11
-51.30
-49.18
-45.80
-41.38
-36.28
-31.05
-26.21
-22.13
-18.87
-16.29
-14.07
-11.91
-9.51
-6.63
-3.06
1.28
6.33
11.82
17.37
22.66
27.51
31.94
36.05
39.85
43.18
45.67
46.89
46.56
44.67
41.54
37.75
33.93
30.62
28.18
26.73
26.25
26.66
27.86
29.70
31.97
34.34
36.44
37.96
38.70
38.66
38.06
37.21
36.40
35.73
35.05
33.95
32.02
29.01
25.05
20.57
16.24
12.72
10.46
9.66
10.31
12.31
15.61
20.23
26.28
33.85
42.93
53.25
64.25
75.12
84.96
93.05
99.06
103.10
105.64
107.28
108.58
109.91
111.37
112.75
113.45
112.47
108.72
101.35
90.22
76.19
60.98
46.58
34.38
24.69
16.53
8.27
-1.64
-13.92
-28.37
-44.06
-59.96
-75.28
-89.65
-102.85
-114.48
-123.86
-130.22
-133.04
-132.41
-129.10
-124.33
-119.30
-114.79
-110.94
-107.32
-103.23
-98.03
-91.43
-83.61
-75.06
-66.38
-58.07
-50.35
-43.27
-36.74
-30.77
-25.46
-20.98
-17.39
-14.54
-12.09
-9.65
-6.96
-4.01
-0.95
1.99
4.74
7.33
9.83
12.16
14.02
15.03
14.94
13.84
12.09
10.17
8.32
6.51
4.42
1.75
-1.56
-5.22
-8.68
-11.43
-13.13
-13.75
-13.43
-12.34
-10.64
-8.42
-5.88
-3.27
-0.92
0.92
2.10
2.74
3.09
3.40
3.79
4.21
4.51
4.49
4.07
3.33
2.48
1.75
1.30
1.15
1.21
1.32
1.32
1.10
0.60
-0.13
-0.97
-1.75
-2.33
-2.54
-2.31
-1.69
-0.81
0.13
1.02
1.87
2.78
3.90
5.48
7.74
10.78
14.51
18.71
22.98
27.05
30.63
33.49
35.77
37.75
39.63
41.25
42.23
42.04
40.70
38.52
35.94
33.79
32.68
32.57
32.83
32.62
31.15
28.67
25.78
23.15
21.88
23.11
27.56
35.46
46.67
60.53
76.80
94.92
110.34
118.84
118.70
111.90
102.18
94.93
89.78
85.67
81.63
76.61
69.79
60.89
49.29
34.08
14.60
-9.12
-35.18
-60.72
-82.84
-98.84
-107.11
-107.65
-101.83
-91.80
-79.99
-68.04
-57.20
-48.39
-41.92
-37.64
-35.24
-34.48
-35.16
-37.25
-40.42
-44.32
-48.60
-52.73
-56.14
-58.44
-59.53
-59.59
-59.06
-58.34
-57.91
-58.23
-59.63
-62.16
-65.49
-68.93
-71.50
-72.19
-70.23
-65.35
-57.95
-48.87
-39.15
-29.79
-21.54
-15.02
-10.68
-8.82
-9.37
-11.87
-15.46
-19.09
-21.88
-23.36
-23.55
-22.71
-21.18
-19.20
-16.86
-14.32
-11.76
-9.50
-7.72
-6.34
-5.05
-3.38
-0.98
2.25
6.14
10.34
14.50
18.38
21.90
25.05
27.87
30.32
32.38
34.05
35.44
36.79
38.44
40.83
44.34
49.16
55.05
61.20
66.19
68.24
65.65
57.23
42.80
23.27
0.55
-23.00
-45.01
-63.66
-77.94
-87.60
-93.05
-94.95
-93.98
-90.71
-85.61
-79.21
-72.22
-65.45
-59.64
-55.23
-52.21
-50.19
-48.63
-47.15
-45.66
-44.43
-43.85
-44.26
-45.84
-48.58
-52.36
-56.93
-61.94
-66.78
-70.60
-72.50
-71.75
-68.14
-62.00
-54.12
-45.33
-36.25
-27.18
-18.28
-9.81
-2.31
3.51
7.13
8.53
8.32
7.51
7.13
7.71
9.23
11.18
12.99
14.35
15.45
16.83
19.10
22.63
27.29
32.51
37.45
41.31
43.57
44.04
42.86
40.24
36.40
31.48
25.65
19.14
12.28
5.51
-0.81
-6.38
-10.98
-14.44
-16.56
-17.13
-15.92
-12.85
-8.00
-1.67
5.64
13.31
20.64
27.00
31.94
35.34
37.35
38.41
39.01
39.65
40.60
41.93
43.47
44.92
45.91
46.17
45.61
44.36
42.73
41.07
39.68
38.64
37.86
37.18
36.52
35.93
35.53
35.38
35.31
34.97
34.00
32.13
29.37
25.89
21.91
17.50
12.60
7.13
1.12
-5.10
-10.98
-15.96
-19.70
-22.19
-23.73
-24.65
-25.18
-25.36
-25.03
-24.10
-22.62
-20.90
-19.35
-18.35
-18.08
-18.52
-19.52
-20.89
-22.45
-24.01
-25.31
-26.05
-25.97
-24.92
-22.99
-20.47
-17.73
-15.14
-12.93
-11.22
-10.05
-9.46
-9.49
-10.19
-11.52
-13.40
-15.69
-18.23
-20.92
-23.67
-26.35
-28.77
-30.69
-31.86
-32.16
-31.59
-30.29
-28.42
-26.02
-22.97
-19.02
-13.94
-7.66
-0.41
7.27
14.66
21.06
26.00
29.37
31.35
32.28
32.46
31.99
30.81
28.83
26.10
22.84
19.41
16.17
13.34
10.94
8.94
7.27
6.02
5.39
5.63
6.87
8.99
11.62
14.23
16.31
17.56
17.97
17.73
17.15
16.49
15.91
15.51
15.39
15.67
16.40
17.61
19.22
21.04
22.92
24.67
26.10
27.03
27.30
26.83
25.69
24.12
22.42
20.90
19.68
18.74
17.92
17.11
16.26
15.43
14.71
14.12
13.65
13.23
12.79
12.24
11.49
10.41
8.88
6.83
4.37
1.72
-0.81
-2.98
-4.71
-6.17
-7.63
-9.42
-11.73
-14.55
-17.65
-20.61
-22.98
-24.33
-24.36
-23.04
-20.57
-17.37
-13.89
-10.48
-7.20
-3.82
0.01
4.35
8.66
11.52
10.89
4.71
-8.33
-28.07
-52.73
-79.26
-104.04
-123.75
-135.95
-139.33
-133.72
-119.89
-99.34
-74.08
-46.41
-18.63
7.28
29.92
48.55
62.83
72.63
77.66
77.51
71.89
61.05
46.07
28.87
11.84
-2.84
-13.76
-20.66
-24.27
-25.90
-26.80
-27.85
-29.35
-31.15
-32.88
-34.20
-34.89
-34.88
-34.13
-32.63
-30.38
-27.48
-24.16
-20.79
-17.74
-15.23
-13.19
-11.32
-9.13
-6.25
-2.51
1.95
6.73
11.39
15.53
18.91
21.46
23.22
24.23
24.52
24.10
23.04
21.44
19.50
17.42
15.32
13.13
10.71
7.83
4.40
0.49
-3.66
-7.66
-11.09
-13.55
-14.74
-14.52
-12.88
-10.04
-6.35
-2.26
1.75
5.35
8.28
10.46
11.86
12.56
12.64
12.27
11.64
10.93
10.28
9.71
9.21
8.73
8.24
7.79
7.48
7.40
7.61
8.05
8.52
8.85
8.90
8.69
8.33
8.02
7.90
7.97
8.16
8.37
8.53
8.59
8.59
8.49
8.32
8.13
8.16
8.75
10.24
12.76
16.15
19.94
23.57
26.63
29.02
30.86
32.34
33.47
34.09
33.89
32.67
30.53
27.85
25.14
22.81
21.03
19.68
18.48
17.21
15.71
14.03
12.31
10.66
9.23
8.07
7.13
6.36
5.66
5.00
4.37
3.81
3.26
2.63
1.72
0.34
-1.57
-3.89
-6.40
-8.90
-11.30
-13.73
-16.30
-18.94
-21.25
-22.55
-22.13
-19.52
-14.65
-7.93
-0.04
8.29
16.39
23.84
30.39
35.95
40.54
44.27
47.38
50.16
52.93
55.95
59.44
63.47
68.08
73.26
78.98
85.22
91.93
99.05
106.50
114.27
122.36
130.76
139.42
148.13
156.54
164.15
170.37
174.64
176.48
175.52
171.62
164.83
155.34
143.40
129.19
112.88
94.57
74.54
53.35
31.83
11.00
-8.20
-25.09
-39.41
-51.21
-60.70
-68.10
-73.53
-76.97
-78.37
-77.66
-74.92
-70.39
-64.60
-58.30
-52.39
-47.70
-44.84
-43.97
-44.88
-47.02
-49.81
-52.74
-55.58
-58.31
-61.06
-63.99
-67.15
-70.50
-73.90
-77.33
-80.85
-84.68
-89.03
-93.92
-99.03
-103.70
-107.26
-109.32
-109.94
-109.65
-109.11
-108.72
-108.39
-107.62
-105.73
-102.17
-96.80
-89.76
-81.39
-71.98
-61.74
-50.87
-39.76
-29.00
-19.30
-11.27
-5.17
-0.91
1.95
3.89
5.32
6.42
7.24
7.85
8.39
9.09
10.10
11.44
12.89
14.13
14.87
14.99
14.52
13.62
12.43
10.97
9.17
6.91
4.13
0.82
-2.93
-6.94
-10.95
-14.57
-17.32
-18.70
-18.36
-16.26
-12.70
-8.30
-3.73
0.42
3.82
6.33
7.87
8.46
8.08
6.86
5.12
3.32
1.91
1.15
0.98
1.10
1.15
0.90
0.37
-0.21
-0.65
-0.91
-1.23
-1.99
-3.51
-5.82
-8.68
-11.65
-14.34
-16.59
-18.53
-20.45
-22.65
-25.24
-28.13
-31.05
-33.59
-35.21
-35.34
-33.49
-29.44
-23.37
-15.92
-8.02
-0.55
5.89
11.14
15.38
18.87
21.81
24.17
25.81
26.57
26.35
25.19
23.14
20.32
16.81
12.71
8.17
3.34
-1.57
-6.29
-10.55
-14.13
-16.87
-18.79
-19.99
-20.70
-21.16
-21.54
-21.92
-22.31
-22.65
-22.81
-22.75
-22.47
-22.11
-21.89
-22.05
-22.70
-23.77
-24.94
-25.72
-25.67
-24.45
-22.04
-18.71
-14.82
-10.76
-6.75
-2.83
1.06
4.95
8.77
12.33
15.39
17.79
19.47
20.54
21.13
21.35
21.24
20.74
19.80
18.42
16.64
14.64
12.57
10.60
8.78
7.09
5.46
3.80
2.06
0.25
-1.57
-3.37
-5.13
-6.90
-8.75
-10.77
-12.99
-15.33
-17.52
-19.16
-19.78
-19.04
-16.89
-13.56
-9.55
-5.41
-1.62
1.57
4.09
5.98
7.32
8.20
8.66
8.79
8.67
8.38
7.94
7.42
6.85
6.33
5.94
5.71
5.65
5.72
5.88
6.14
6.50
7.00
7.62
8.30
8.93
9.43
9.72
9.82
9.73
9.48
8.98
8.17
6.95
5.26
3.16
0.80
-1.54
-3.47
-4.65
-4.81
-3.88
-1.92
0.83
4.10
7.62
11.12
14.35
17.03
18.97
20.09
20.51
20.51
20.41
20.43
20.59
20.72
20.57
19.94
18.76
17.11
15.09
12.85
10.46
8.03
5.66
3.49
1.60
-0.03
-1.47
-2.86
-4.28
-5.74
-7.19
-8.50
-9.61
-10.46
-11.08
-11.55
-11.98
-12.54
-13.40
-14.70
-16.46
-18.47
-20.37
-21.68
-21.94
-20.89
-18.50
-14.96
-10.64
-5.95
-1.27
3.07
6.84
9.87
12.13
13.67
14.60
15.04
15.09
14.83
14.36
13.81
13.37
13.17
13.24
13.54
13.90
14.13
14.07
13.64
12.85
11.78
10.55
9.27
8.09
7.08
6.27
5.68
5.27
5.08
5.09
5.25
5.41
5.32
4.75
3.55
1.75
-0.45
-2.87
-5.34
-7.79
-10.13
-12.18
-13.59
-13.92
-12.81
-10.17
-6.25
-1.55
3.36
8.02
12.17
15.75
18.73
21.09
22.78
23.77
24.12
24.00
23.65
23.29
23.03
22.85
22.61
22.14
21.30
20.07
18.54
16.86
15.24
13.77
12.48
11.33
10.25
9.25
8.44
7.94
7.82
8.06
8.47
8.84
9.02
8.96
8.71
8.44
8.29
8.42
9.02
10.20
12.05
14.46
17.14
19.58
21.20
21.44
19.89
16.46
11.32
4.93
-2.04
-8.88
-14.97
-19.88
-23.47
-25.82
-27.20
-27.84
-27.94
-27.55
-26.71
-25.53
-24.16
-22.82
-21.61
-20.43
-19.04
-17.08
-14.39
-11.09
-7.64
-4.64
-2.65
-1.89
-2.23
-3.25
-4.40
-5.17
-5.17
-4.20
-2.24
0.44
3.33
5.75
7.05
6.86
5.23
2.61
-0.34
-2.94
-4.69
-5.32
-4.77
-3.16
-0.74
2.10
4.93
7.31
8.94
9.63
9.42
8.41
6.79
4.80
2.72
0.82
-0.63
-1.49
-1.77
-1.58
-1.01
-0.08
1.25
2.91
4.68
6.05
6.43
5.33
2.61
-1.42
-6.09
-10.60
-14.30
-16.85
-18.25
-18.81
-18.91
-18.98
-19.31
-20.08
-21.25
-22.67
-24.06
-25.07
-25.40
-24.87
-23.42
-21.18
-18.37
-15.24
-12.00
-8.82
-5.82
-3.10
-0.77
1.08
2.42
3.30
3.83
4.16
4.45
4.76
5.14
5.56
5.98
6.33
6.62
6.87
7.16
7.56
8.09
8.65
9.05
9.12
8.71
7.86
6.67
5.32
3.94
2.62
1.40
0.27
-0.75
-1.73
-2.73
-3.90
-5.32
-7.01
-8.85
-10.60
-11.88
-12.36
-11.81
-10.19
-7.69
-4.63
-1.36
1.80
4.68
7.25
9.54
11.58
13.38
14.89
16.05
16.89
17.46
17.94
18.49
19.28
20.37
21.75
23.29
24.84
26.28
27.57
28.81
30.15
31.73
33.52
35.28
36.57
36.94
36.01
33.65
30.00
25.40
20.21
14.74
9.16
3.58
-1.91
-7.22
-12.25
-16.94
-21.27
-25.23
-28.71
-31.52
-33.39
-34.05
-33.38
-31.43
-28.47
-24.85
-20.93
-16.95
-13.02
-9.10
-5.11
-0.99
3.19
7.17
10.57
12.96
13.98
13.52
11.71
8.87
5.44
1.81
-1.70
-4.93
-7.75
-10.10
-11.90
-13.14
-13.86
-14.25
-14.52
-14.89
-15.50
-16.33
-17.25
-18.07
-18.65
-18.98
-19.16
-19.36
-19.75
-20.40
-21.25
-22.20
-23.07
-23.78
-24.28
-24.57
-24.58
-24.16
-23.09
-21.19
-18.41
-14.92
-11.07
-7.23
-3.75
-0.85
1.37
2.87
3.64
3.75
3.32
2.59
1.89
1.48
1.48
1.80
2.22
2.52
2.53
2.27
1.81
1.32
0.83
0.35
-0.21
-0.95
-1.94
-3.20
-4.65
-6.17
-7.62
-8.86
-9.83
-10.54
-11.08
-11.55
-11.99
-12.42
-12.82
-13.24
-13.74
-14.40
-15.12
-15.63
-15.49
-14.22
-11.51
-7.36
-2.10
3.72
9.50
14.73
19.01
22.07
23.72
23.88
22.66
20.36
17.41
14.31
11.42
8.91
6.81
5.09
3.80
3.00
2.78
3.08
3.71
4.46
5.07
5.46
5.69
5.89
6.19
6.67
7.27
7.84
8.21
8.19
7.65
6.54
4.81
2.44
-0.62
-4.38
-8.75
-13.47
-18.11
-22.12
-25.00
-26.40
-26.20
-24.52
-21.66
-18.01
-14.02
-10.05
-6.40
-3.23
-0.57
1.67
3.66
5.48
7.20
8.79
10.21
11.42
12.40
13.12
13.55
13.71
13.63
13.43
13.27
13.29
13.53
13.88
14.16
14.20
13.97
13.59
13.27
13.21
13.53
14.29
15.47
16.99
18.72
20.37
21.49
21.61
20.31
17.38
12.92
7.26
0.96
-5.39
-11.18
-15.94
-19.36
-21.31
-21.88
-21.31
-19.92
-17.98
-15.74
-13.40
-11.13
-9.10
-7.45
-6.23
-5.41
-4.86
-4.42
-3.94
-3.28
-2.36
-1.07
0.59
2.51
4.48
6.21
7.40
7.89
7.71
7.01
6.04
5.00
4.02
3.14
2.33
1.51
0.63
-0.38
-1.56
-2.88
-4.26
-5.60
-6.83
-7.95
-9.07
-10.30
-11.74
-13.37
-15.05
-16.54
-17.55
-17.89
-17.40
-16.01
-13.73
-10.66
-7.01
-3.05
0.89
4.47
7.48
9.78
11.36
12.30
12.76
12.98
13.21
13.68
14.49
15.56
16.65
17.46
17.74
17.42
16.62
15.60
14.62
13.86
13.35
12.99
12.57
11.93
10.90
9.40
7.36
4.78
1.69
-1.79
-5.47
-9.09
-12.38
-15.14
-17.29
-18.95
-20.34
-21.70
-23.19
-24.78
-26.25
-27.20
-27.24
-26.05
-23.52
-19.77
-15.11
-10.00
-4.88
-0.18
3.83
7.04
9.41
11.01
11.93
12.34
12.40
12.34
12.32
12.39
12.50
12.49
12.24
11.76
11.19
10.72
10.50
10.47
10.40
9.99
9.09
7.71
6.12
4.58
3.23
2.03
0.81
-0.58
-2.16
-3.85
-5.54
-7.24
-9.07
-11.19
-13.71
-16.50
-19.28
-21.65
-23.21
-23.67
-22.84
-20.67
-17.26
-12.89
-7.98
-3.01
1.56
5.43
8.48
10.77
12.48
13.77
14.79
15.57
16.09
16.26
16.05
15.45
14.59
13.67
12.87
12.28
11.84
11.31
10.45
9.10
7.31
5.31
3.43
1.90
0.83
0.13
-0.34
-0.75
-1.19
-1.77
-2.57
-3.70
-5.26
-7.24
-9.60
-12.21
-14.97
-17.78
-20.55
-23.10
-25.17
-26.41
-26.44
-25.00
-22.01
-17.60
-12.12
-6.07
0.05
5.80
10.95
15.39
19.14
22.30
24.94
27.14
29.04
30.80
32.58
34.50
36.57
38.65
40.57
42.18
43.42
44.34
45.06
45.71
46.33
46.89
47.29
47.43
47.25
46.70
45.76
44.36
42.41
39.82
36.61
32.92
28.97
24.87
20.48
15.33
8.70
-0.13
-11.51
-25.19
-40.33
-55.57
-69.46
-80.69
-88.39
-92.10
-91.77
-87.66
-80.25
-70.29
-58.69
-46.47
-34.51
-23.41
-13.47
-4.73
2.82
9.13
14.05
17.43
19.28
19.84
19.50
18.75
17.93
17.28
16.86
16.63
16.51
16.40
16.17
15.76
15.14
14.32
13.37
12.34
11.28
10.17
8.98
7.67
6.15
4.39
2.35
0.08
-2.38
-4.93
-7.47
-9.93
-12.28
-14.53
-16.72
-18.95
-21.27
-23.62
-25.80
-27.43
-28.09
-27.43
-25.38
-22.16
-18.22
-14.06
-10.06
-6.37
-2.99
0.12
2.95
5.41
7.38
8.79
9.62
9.97
10.01
9.90
9.82
9.83
9.92
10.00
9.92
9.58
8.92
8.00
6.89
5.70
4.47
3.21
1.87
0.43
-1.13
-2.77
-4.43
-6.06
-7.63
-9.15
-10.64
-12.14
-13.66
-15.17
-16.66
-18.15
-19.70
-21.35
-23.05
-24.56
-25.49
-25.42
-24.07
-21.42
-17.77
-13.60
-9.44
-5.69
-2.57
-0.12
1.76
3.17
4.28
5.16
5.86
6.38
6.69
6.81
6.76
6.61
6.38
6.09
5.70
5.13
4.38
3.50
2.66
2.03
1.76
1.88
2.33
3.01
3.80
4.62
5.46
6.29
7.17
8.10
9.09
9.97
10.45
10.07
8.40
5.10
0.19
-6.00
-12.79
-19.38
-24.93
-28.82
-30.69
-30.52
-28.61
-25.44
-21.63
-17.69
-13.94
-10.53
-7.40
-4.48
-1.64
1.16
4.00
6.96
10.13
13.54
17.10
20.61
23.75
26.26
27.90
28.51
28.00
26.32
23.52
19.73
15.25
10.44
5.66
1.18
-2.86
-6.42
-9.52
-12.18
-14.41
-16.18
-17.43
-18.15
-18.36
-18.26
-18.11
-18.27
-18.98
-20.31
-22.00
-23.60
-24.54
-24.41
-23.06
-20.58
-17.27
-13.43
-9.29
-5.02
-0.76
3.31
6.98
9.99
12.19
13.53
14.16
14.33
14.34
14.39
14.53
14.65
14.59
14.17
13.34
12.11
10.69
9.30
8.20
7.58
7.47
7.75
8.18
8.45
8.33
7.73
6.72
5.48
4.13
2.68
1.04
-0.90
-3.10
-5.33
-7.22
-8.39
-8.64
-7.96
-6.52
-4.51
-2.09
0.56
3.16
5.32
6.59
6.66
5.60
3.84
2.00
0.63
-0.01
-0.08
0.07
0.11
-0.12
-0.50
-0.88
-1.12
-1.27
-1.50
-1.97
-2.70
-3.51
-4.10
-4.20
-3.74
-2.83
-1.75
-0.79
-0.15
0.14
0.19
0.09
-0.06
-0.26
-0.54
-0.96
-1.56
-2.37
-3.43
-4.81
-6.64
-9.02
-12.02
-15.55
-19.35
-22.97
-25.82
-27.39
-27.31
-25.52
-22.28
-18.08
-13.53
-9.23
-5.61
-2.87
-1.04
0.07
0.72
1.18
1.64
2.19
2.84
3.53
4.20
4.77
5.17
5.32
5.18
4.71
3.93
2.88
1.59
0.09
-1.61
-3.51
-5.57
-7.71
-9.80
-11.72
-13.39
-14.85
-16.23
-17.74
-19.52
-21.58
-23.77
-25.82
-27.42
-28.30
-28.27
-27.23
-25.16
-22.08
-18.11
-13.43
-8.30
-2.99
2.19
7.02
11.29
14.86
17.67
19.75
21.29
22.55
23.86
25.39
27.09
28.71
29.85
30.18
29.54
27.96
25.68
22.94
19.97
16.89
13.77
10.66
7.60
4.66
1.93
-0.54
-2.71
-4.63
-6.43
-8.33
-10.49
-13.01
-15.83
-18.81
-21.76
-24.46
-26.71
-28.22
-28.64
-27.61
-24.92
-20.60
-15.07
-8.90
-2.75
2.93
7.88
12.03
15.39
17.95
19.76
20.86
21.41
21.57
21.51
21.30
20.96
20.52
20.03
19.62
19.39
19.36
19.46
19.55
19.47
19.11
18.36
17.17
15.50
13.34
10.77
7.96
5.14
2.53
0.22
-1.80
-3.67
-5.55
-7.61
-9.91
-12.50
-15.37
-18.40
-21.37
-23.89
-25.44
-25.47
-23.57
-19.60
-13.70
-6.37
1.78
10.06
17.91
24.90
30.72
35.14
38.02
39.26
38.93
37.28
34.74
31.83
29.02
26.60
24.62
23.00
21.65
20.59
20.00
20.16
21.23
23.19
25.72
28.33
30.43
31.63
31.71
30.69
28.73
26.06
22.91
19.56
16.29
13.39
11.05
9.25
7.77
6.18
4.02
0.95
-3.10
-7.93
-13.16
-18.28
-22.77
-26.16
-28.03
-28.13
-26.38
-22.92
-18.15
-12.64
-7.11
-2.20
1.59
4.06
5.30
5.65
5.52
5.25
5.01
4.75
4.38
3.78
2.99
2.11
1.24
0.39
-0.55
-1.73
-3.20
-4.84
-6.37
-7.46
-7.92
-7.87
-7.72
-8.01
-9.20
-11.45
-14.60
-18.17
-21.62
-24.56
-26.80
-28.40
-29.57
-30.60
-31.69
-33.01
-34.54
-36.14
-37.45
-37.96
-37.15
-34.63
-30.32
-24.54
-17.91
-11.17
-4.95
0.38
4.67
7.98
10.36
11.83
12.43
12.27
11.60
10.82
10.33
10.37
10.96
11.92
12.98
13.93
14.78
15.72
17.07
19.07
21.81
25.04
28.29
30.92
32.37
32.34
30.88
28.41
25.49
22.70
20.39
18.69
17.49
16.56
15.56
14.14
11.96
8.83
4.82
0.32
-4.01
-7.44
-9.37
-9.54
-8.09
-5.44
-2.15
1.33
4.69
7.88
10.95
13.97
16.88
19.45
21.37
22.25
21.82
20.04
17.11
13.39
9.31
5.23
1.39
-2.04
-4.94
-7.25
-8.96
-10.21
-11.22
-12.26
-13.51
-14.97
-16.48
-17.80
-18.73
-19.24
-19.47
-19.66
-20.00
-20.59
-21.44
-22.48
-23.66
-24.98
-26.46
-28.13
-29.93
-31.70
-33.18
-34.11
-34.21
-33.33
-31.40
-28.42
-24.50
-19.80
-14.58
-9.16
-3.88
0.92
4.98
8.13
10.39
11.85
12.72
13.22
13.57
13.88
14.23
14.62
15.03
15.46
15.89
16.30
16.68
16.99
17.22
17.36
17.41
17.29
16.90
16.11
14.84
13.12
11.13
9.08
7.19
5.55
4.20
3.07
2.05
0.99
-0.23
-1.77
-3.77
-6.27
-9.17
-12.24
-15.09
-17.32
-18.57
-18.65
-17.52
-15.31
-12.23
-8.54
-4.50
-0.37
3.61
7.29
10.53
13.27
15.45
16.98
17.79
17.86
17.32
16.47
15.69
15.35
15.60
16.36
17.29
18.00
18.15
17.60
16.40
14.73
12.73
10.55
8.22
5.78
3.27
0.80
-1.52
-3.60
-5.44
-7.09
-8.66
-10.25
-11.85
-13.44
-14.94
-16.36
-17.80
-19.36
-21.09
-22.93
-24.67
-25.99
-26.61
-26.33
-25.12
-23.10
-20.52
-17.68
-14.84
-12.17
-9.72
-7.49
-5.44
-3.58
-1.88
-0.36
1.05
2.50
4.17
6.24
8.79
11.75
14.94
18.07
20.86
23.07
24.49
25.05
24.74
23.67
22.00
19.91
17.55
15.01
12.30
9.36
6.13
2.60
-1.17
-5.08
-8.98
-12.80
-16.55
-20.36
-24.41
-28.80
-33.45
-37.99
-41.87
-44.48
-45.36
-44.39
-41.82
-38.11
-33.78
-29.24
-24.72
-20.36
-16.22
-12.40
-8.98
-6.02
-3.49
-1.31
0.61
2.40
4.06
5.59
6.93
8.04
8.90
9.53
9.98
10.35
10.77
11.32
12.08
13.10
14.42
16.09
18.07
20.15
21.94
22.89
22.46
20.27
16.33
10.98
4.78
-1.70
-8.08
-14.24
-20.16
-25.74
-30.65
-34.31
-36.06
-35.48
-32.62
-28.02
-22.59
-17.28
-12.73
-9.18
-6.41
-4.03
-1.76
0.52
2.68
4.57
6.12
7.35
8.42
9.41
10.31
11.03
11.44
11.52
11.33
11.02
10.73
10.57
10.57
10.64
10.69
10.55
10.05
9.09
7.65
5.86
3.91
2.01
0.32
-1.07
-2.17
-3.01
-3.70
-4.40
-5.36
-6.78
-8.71
-10.90
-12.86
-13.95
-13.65
-11.78
-8.60
-4.70
-0.78
2.68
5.52
7.90
10.11
12.35
14.61
16.67
18.26
19.24
19.62
19.58
19.34
19.04
18.76
18.44
18.07
17.64
17.16
16.68
16.23
15.74
15.13
14.31
13.25
12.02
10.77
9.67
8.82
8.18
7.62
6.93
5.96
4.63
2.92
0.83
-1.63
-4.41
-7.34
-10.08
-12.18
-13.20
-12.84
-11.10
-8.24
-4.71
-1.01
2.41
5.35
7.74
9.63
11.04
11.93
12.18
11.72
10.59
8.97
7.17
5.47
4.03
2.88
1.92
1.05
0.22
-0.58
-1.34
-2.17
-3.25
-4.76
-6.79
-9.29
-11.98
-14.52
-16.57
-17.91
-18.53
-18.60
-18.38
-18.19
-18.31
-18.97
-20.26
-22.14
-24.32
-26.29
-27.39
-26.98
-24.63
-20.29
-14.34
-7.50
-0.64
5.49
10.35
13.71
15.60
16.18
15.72
14.51
12.86
11.05
9.29
7.65
6.13
4.65
3.18
1.75
0.43
-0.69
-1.61
-2.39
-3.14
-4.02
-5.17
-6.73
-8.76
-11.16
-13.70
-16.03
-17.84
-19.01
-19.75
-20.44
-21.55
-23.30
-25.59
-27.96
-29.77
-30.40
-29.42
-26.70
-22.42
-16.99
-10.98
-5.05
0.25
4.52
7.60
9.57
10.64
11.08
11.10
10.82
10.33
9.69
9.03
8.45
8.02
7.72
7.43
7.04
6.51
5.92
5.41
5.03
4.74
4.33
3.55
2.19
0.26
-2.07
-4.45
-6.53
-8.03
-8.86
-9.19
-9.33
-9.68
-10.60
-12.25
-14.58
-17.29
-19.90
-21.81
-22.48
-21.47
-18.65
-14.17
-8.49
-2.18
4.21
10.28
15.73
20.34
23.88
26.11
26.92
26.39
24.80
22.57
20.06
17.56
15.19
13.04
11.15
9.60
8.41
7.54
6.85
6.23
5.59
4.90
4.20
3.51
2.83
2.11
1.23
0.08
-1.40
-3.22
-5.21
-7.15
-8.77
-9.94
-10.69
-11.27
-12.00
-13.21
-15.04
-17.44
-20.10
-22.55
-24.24
-24.62
-23.35
-20.30
-15.65
-9.81
-3.30
3.42
10.04
16.43
22.62
28.64
34.53
40.20
45.47
50.09
53.74
56.18
57.30
57.17
56.01
54.09
51.61
48.64
45.19
41.24
36.89
32.40
28.12
24.42
21.49
19.33
17.68
16.14
14.27
11.72
8.23
3.80
-1.43
-7.17
-13.03
-18.63
-23.67
-28.00
-31.65
-34.84
-37.91
-41.17
-44.78
-48.54
-51.95
-54.33
-54.98
-53.47
-49.74
-44.12
-37.22
-29.71
-22.19
-15.08
-8.60
-2.91
1.89
5.75
8.65
10.68
12.01
12.90
13.56
14.15
14.72
15.26
15.68
15.94
15.98
15.75
15.18
14.24
12.91
11.27
9.42
7.51
5.65
3.87
2.09
0.24
-1.75
-3.84
-5.95
-8.00
-9.94
-11.84
-13.82
-16.05
-18.65
-21.64
-24.89
-28.09
-30.78
-32.42
-32.53
-30.79
-27.20
-22.02
-15.78
-9.11
-2.55
3.48
8.73
13.05
16.39
18.76
20.21
20.90
21.04
20.93
20.84
20.93
21.23
21.61
21.87
21.80
21.33
20.48
19.37
18.14
16.88
15.62
14.33
12.89
11.20
9.22
6.99
4.62
2.28
0.08
-1.97
-3.97
-6.10
-8.52
-11.36
-14.60
-18.19
-21.92
-25.52
-28.53
-30.43
-30.71
-29.11
-25.67
-20.78
-15.04
-9.02
-3.17
2.28
7.21
11.63
15.47
18.72
21.32
23.18
24.26
24.52
24.00
22.89
21.46
20.07
18.99
18.36
18.15
18.21
18.37
18.50
18.46
18.16
17.45
16.24
14.51
12.37
10.00
7.57
5.14
2.69
0.17
-2.40
-4.92
-7.22
-9.18
-10.84
-12.42
-14.25
-16.58
-19.50
-22.82
-26.10
-28.75
-30.25
-30.23
-28.59
-25.50
-21.28
-16.36
-11.14
-6.00
-1.23
2.94
6.39
9.13
11.32
13.15
14.76
16.21
17.38
18.12
18.32
18.07
17.54
16.98
16.59
16.46
16.52
16.63
16.59
16.28
15.65
14.77
13.77
12.78
11.83
10.88
9.83
8.57
7.12
5.60
4.17
2.91
1.81
0.74
-0.50
-1.99
-3.79
-5.80
-8.00
-10.37
-12.92
-15.52
-17.89
-19.59
-20.13
-19.22
-16.84
-13.26
-8.96
-4.41
0.00
4.03
7.50
10.28
12.26
13.42
13.83
13.72
13.38
13.07
13.01
13.24
13.71
14.27
14.68
14.72
14.23
13.13
11.52
9.56
7.45
5.34
3.35
1.53
-0.09
-1.54
-2.90
-4.32
-5.95
-7.89
-10.09
-12.38
-14.50
-16.29
-17.72
-18.95
-20.23
-21.79
-23.78
-26.17
-28.77
-31.24
-33.17
-34.12
-33.74
-31.88
-28.68
-24.47
-19.72
-14.84
-10.14
-5.78
-1.88
1.49
4.20
6.19
7.50
8.31
8.81
9.20
9.53
9.75
9.72
9.39
8.78
8.04
7.30
6.68
6.19
5.84
5.63
5.57
5.65
5.79
5.86
5.75
5.39
4.84
4.18
3.51
2.80
1.97
0.96
-0.24
-1.46
-2.48
-3.05
-3.03
-2.33
-0.92
1.26
4.32
8.41
13.65
20.13
27.87
36.77
46.62
57.00
67.12
75.86
81.80
83.52
80.00
71.07
57.55
41.18
24.08
8.18
-5.21
-15.58
-22.98
-27.79
-30.40
-31.23
-30.71
-29.37
-27.86
-26.73
-26.34
-26.82
-28.03
-29.67
-31.40
-32.92
-34.03
-34.69
-34.97
-35.11
-35.31
-35.70
-36.27
-36.93
-37.63
-38.39
-39.28
-40.22
-40.90
-40.80
-39.35
-36.19
-31.37
-25.23
-18.37
-11.29
-4.31
2.49
9.18
15.74
22.01
27.60
32.06
34.98
36.15
35.66
33.77
30.81
27.12
22.93
18.37
13.65
9.02
4.82
1.34
-1.32
-3.26
-4.76
-6.11
-7.49
-8.92
-10.33
-11.69
-13.03
-14.46
-16.05
-17.82
-19.68
-21.54
-23.40
-25.37
-27.59
-30.13
-32.88
-35.52
-37.56
-38.48
-37.87
-35.54
-31.63
-26.55
-20.93
-15.40
-10.48
-6.42
-3.13
-0.34
2.29
4.90
7.43
9.64
11.27
12.26
12.78
13.13
13.61
14.30
15.09
15.73
16.02
15.89
15.47
14.90
14.28
13.56
12.61
11.31
9.67
7.81
5.94
4.25
2.80
1.52
0.22
-1.26
-3.08
-5.26
-7.76
-10.51
-13.41
-16.35
-19.17
-21.61
-23.29
-23.81
-22.90
-20.51
-16.91
-12.61
-8.16
-3.99
-0.31
2.87
5.66
8.12
10.18
11.72
12.59
12.75
12.35
11.63
10.92
10.42
10.22
10.25
10.39
10.51
10.55
10.51
10.41
10.24
9.93
9.44
8.72
7.80
6.72
5.55
4.27
2.85
1.18
-0.81
-3.16
-5.82
-8.68
-11.60
-14.36
-16.79
-18.64
-19.70
-19.77
-18.71
-16.46
-13.04
-8.59
-3.31
2.51
8.48
14.20
19.30
23.49
26.69
28.89
30.21
30.78
30.78
30.43
29.96
29.61
29.47
29.48
29.45
29.08
28.19
26.78
24.97
22.98
20.97
18.95
16.90
14.73
12.50
10.31
8.34
6.68
5.34
4.16
2.82
0.96
-1.78
-5.59
-10.42
-15.94
-21.61
-26.76
-30.77
-33.18
-33.84
-32.83
-30.41
-26.94
-22.77
-18.25
-13.67
-9.26
-5.17
-1.42
2.01
5.16
7.98
10.40
12.33
13.83
15.08
16.37
17.89
19.66
21.46
22.95
23.86
24.18
24.18
24.23
24.60
25.29
26.01
26.32
25.90
24.73
23.09
21.46
20.29
19.82
20.03
20.62
21.15
21.02
19.51
15.85
9.41
-0.00
-11.89
-25.00
-37.58
-47.82
-54.38
-56.63
-54.73
-49.35
-41.42
-31.87
-21.63
-11.53
-2.36
5.26
10.94
14.68
16.79
17.72
18.01
18.03
18.00
17.98
17.90
17.65
17.14
16.36
15.36
14.24
13.08
11.88
10.51
8.86
6.85
4.53
2.11
-0.21
-2.27
-4.06
-5.69
-7.29
-8.96
-10.69
-12.41
-14.06
-15.66
-17.30
-19.20
-21.51
-24.27
-27.27
-30.05
-31.99
-32.48
-31.18
-28.10
-23.58
-18.17
-12.42
-6.79
-1.61
2.95
6.79
9.92
12.39
14.29
15.71
16.66
17.20
17.37
17.32
17.26
17.38
17.68
18.09
18.39
18.43
18.22
17.92
17.73
17.77
17.99
18.15
18.03
17.46
16.49
15.32
14.24
13.54
13.32
13.53
13.96
14.25
14.01
12.80
10.23
6.03
0.14
-7.17
-15.27
-23.17
-29.79
-34.23
-36.05
-35.38
-32.84
-29.27
-25.42
-21.76
-18.42
-15.40
-12.66
-10.23
-8.23
-6.75
-5.77
-5.19
-4.87
-4.73
-4.73
-4.89
-5.18
-5.53
-5.83
-5.97
-5.95
-5.84
-5.79
-5.95
-6.42
-7.21
-8.26
-9.42
-10.53
-11.42
-11.97
-12.18
-12.19
-12.29
-12.80
-13.99
-15.93
-18.52
-21.49
-24.48
-27.13
-29.07
-29.97
-29.54
-27.63
-24.28
-19.81
-14.71
-9.54
-4.71
-0.45
3.20
6.30
8.87
10.86
12.21
12.97
13.30
13.46
13.68
14.06
14.54
14.93
15.12
15.05
14.82
14.55
14.34
14.20
14.04
13.75
13.23
12.45
11.43
10.17
8.70
7.02
5.15
3.14
1.07
-0.96
-2.87
-4.60
-6.15
-7.61
-9.17
-11.00
-13.23
-15.81
-18.48
-20.74
-22.06
-22.00
-20.42
-17.53
-13.76
-9.65
-5.57
-1.72
1.89
5.27
8.32
10.83
12.57
13.42
13.47
13.04
12.52
12.24
12.33
12.75
13.37
14.06
14.73
15.35
15.81
15.91
15.44
14.29
12.49
10.27
7.97
5.89
4.15
2.70
1.33
-0.18
-1.91
-3.78
-5.60
-7.25
-8.69
-10.09
-11.68
-13.64
-16.00
-18.52
-20.85
-22.58
-23.43
-23.24
-22.01
-19.81
-16.77
-13.12
-9.14
-5.19
-1.63
1.25
3.33
4.62
5.24
5.37
5.19
4.90
4.73
4.86
5.35
6.10
6.84
7.34
7.50
7.40
7.27
7.29
7.49
7.69
7.59
6.95
5.69
3.93
1.87
-0.28
-2.37
-4.37
-6.25
-8.04
-9.81
-11.61
-13.49
-15.40
-17.23
-18.77
-19.75
-19.93
-19.10
-17.16
-14.12
-10.14
-5.53
-0.66
4.10
8.51
12.47
15.99
19.07
21.69
23.77
25.28
26.28
26.94
27.49
28.11
28.83
29.52
29.94
29.90
29.37
28.52
27.64
26.98
26.59
26.30
25.74
24.47
22.15
18.68
14.17
8.85
3.09
-2.80
-8.51
-13.77
-18.34
-22.01
-24.67
-26.36
-27.20
-27.38
-27.02
-26.14
-24.65
-22.46
-19.56
-16.09
-12.35
-8.68
-5.31
-2.38
0.09
2.06
3.46
4.17
4.17
3.58
2.69
1.84
1.33
1.30
1.72
2.44
3.31
4.15
4.88
5.39
5.66
5.68
5.52
5.27
5.00
4.68
4.25
3.61
2.76
1.79
0.85
0.07
-0.56
-1.09
-1.63
-2.24
-2.92
-3.68
-4.59
-5.84
-7.60
-9.90
-12.51
-14.91
-16.52
-16.81
-15.60
-13.04
-9.59
-5.78
-2.09
1.16
3.85
5.97
7.62
8.90
9.95
10.91
11.90
12.98
14.12
15.18
16.01
16.56
16.86
17.07
17.35
17.79
18.35
18.85
19.16
19.14
18.79
18.13
17.13
15.78
14.01
11.77
9.07
6.00
2.68
-0.70
-3.98
-7.04
-9.85
-12.44
-14.89
-17.19
-19.22
-20.74
-21.48
-21.26
-20.10
-18.21
-15.91
-13.54
-11.32
-9.41
-7.88
-6.78
-6.14
-5.99
-6.25
-6.81
-7.48
-8.04
-8.31
-8.10
-7.24
-5.64
-3.34
-0.55
2.35
4.93
6.77
7.64
7.51
6.55
5.04
3.22
1.27
-0.70
-2.66
-4.57
-6.38
-8.05
-9.53
-10.82
-11.95
-13.02
-14.16
-15.50
-17.14
-18.99
-20.80
-22.13
-22.54
-21.65
-19.43
-16.09
-12.09
-7.90
-3.80
0.10
3.84
7.46
10.91
14.03
16.66
18.64
19.87
20.26
19.79
18.49
16.56
14.31
12.06
10.02
8.23
6.53
4.80
2.97
1.15
-0.54
-2.01
-3.33
-4.63
-6.09
-7.83
-9.85
-12.09
-14.48
-16.95
-19.51
-22.19
-24.97
-27.80
-30.55
-32.90
-34.49
-34.97
-34.08
-31.85
-28.51
-24.47
-20.15
-15.85
-11.70
-7.68
-3.75
0.08
3.69
6.92
9.55
11.51
12.81
13.57
13.92
13.96
13.73
13.24
12.57
11.86
11.32
11.13
11.36
11.86
12.38
12.66
12.50
11.87
10.87
9.66
8.36
7.09
5.89
4.79
3.77
2.78
1.67
0.30
-1.47
-3.63
-5.99
-8.13
-9.52
-9.65
-8.20
-5.17
-0.91
3.97
8.76
12.84
15.86
17.70
18.50
18.49
17.98
17.20
16.36
15.64
15.19
15.11
15.41
16.01
16.76
17.46
18.03
18.42
18.65
18.78
18.82
18.66
18.14
17.06
15.27
12.77
9.73
6.43
3.24
0.49
-1.66
-3.21
-4.38
-5.44
-6.65
-8.19
-10.15
-12.52
-15.29
-18.45
-21.96
-25.69
-29.41
-32.79
-35.37
-36.66
-36.20
-33.74
-29.34
-23.40
-16.62
-9.80
-3.61
1.51
5.44
8.29
10.28
11.60
12.41
12.83
12.95
12.83
12.53
12.12
11.64
11.18
10.81
10.56
10.44
10.41
10.39
10.32
10.14
9.86
9.48
9.01
8.48
7.84
7.02
5.91
4.38
2.32
-0.30
-3.43
-6.94
-10.61
-14.24
-17.66
-20.75
-23.53
-26.06
-28.40
-30.54
-32.26
-33.18
-32.86
-30.97
-27.49
-22.70
-17.15
-11.43
-6.00
-1.09
3.28
7.19
10.67
13.61
15.79
16.98
17.10
16.30
14.97
13.59
12.59
12.18
12.30
12.67
12.93
12.81
12.23
11.32
10.27
9.25
8.32
7.37
6.21
4.68
2.77
0.59
-1.65
-3.78
-5.79
-7.80
-10.02
-12.60
-15.57
-18.78
-21.99
-24.89
-27.26
-28.86
-29.51
-29.02
-27.28
-24.28
-20.21
-15.42
-10.36
-5.44
-0.94
3.01
6.39
9.16
11.27
12.66
13.32
13.40
13.14
12.76
12.38
12.01
11.57
11.03
10.46
9.97
9.68
9.58
9.59
9.55
9.35
8.91
8.21
7.21
5.86
4.12
2.09
-0.07
-2.13
-3.93
-5.45
-6.81
-8.22
-9.82
-11.63
-13.52
-15.34
-16.96
-18.33
-19.43
-20.12
-20.08
-18.85
-16.00
-11.35
-5.07
2.32
10.11
17.63
24.43
30.30
35.27
39.49
43.17
46.57
49.99
53.69
57.87
62.52
67.40
72.01
75.71
77.83
77.87
75.54
70.80
63.82
54.88
44.32
32.52
20.01
7.44
-4.32
-14.41
-22.15
-27.32
-30.19
-31.45
-31.93
-32.31
-32.94
-33.90
-35.09
-36.47
-38.06
-39.96
-42.19
-44.62
-46.89
-48.53
-49.06
-48.17
-45.78
-42.07
-37.42
-32.26
-26.90
-21.52
-16.11
-10.71
-5.43
-0.60
3.33
6.00
7.29
7.41
6.89
6.32
6.17
6.63
7.61
8.88
10.18
11.37
12.39
13.21
13.75
13.87
13.42
12.33
10.68
8.64
6.44
4.24
2.12
0.00
-2.19
-4.55
-7.07
-9.69
-12.30
-14.77
-17.03
-19.05
-20.91
-22.71
-24.61
-26.67
-28.81
-30.76
-32.09
-32.37
-31.26
-28.67
-24.84
-20.23
-15.45
-11.06
-7.50
-4.94
-3.43
-2.87
-3.12
-4.00
-5.27
-6.58
-7.54
-7.75
-6.96
-5.18
-2.69
0.07
2.64
4.72
6.25
7.39
8.42
9.59
11.01
12.60
14.14
15.34
15.94
15.77
14.81
13.11
10.75
7.85
4.46
0.69
-3.35
-7.46
-11.45
-15.12
-18.24
-20.57
-21.85
-21.88
-20.65
-18.43
-15.65
-12.81
-10.20
-7.81
-5.44
-2.88
-0.08
2.73
5.15
6.83
7.65
7.81
7.72
7.81
8.37
9.41
10.68
11.84
12.59
12.84
12.67
12.32
12.02
11.93
11.97
11.91
11.42
10.26
8.36
5.85
2.98
0.02
-2.86
-5.64
-8.41
-11.26
-14.28
-17.44
-20.63
-23.62
-26.12
-27.83
-28.44
-27.72
-25.60
-22.20
-17.82
-12.95
-8.17
-3.96
-0.57
2.00
4.03
5.92
7.96
10.19
12.42
14.33
15.70
16.58
17.23
17.97
19.04
20.44
22.01
23.57
24.96
26.17
27.18
27.97
28.46
28.57
28.33
27.91
27.59
27.65
28.20
29.08
29.85
29.96
28.84
26.10
21.67
15.79
8.93
1.74
-5.16
-11.23
-16.11
-19.54
-21.42
-21.73
-20.51
-17.91
-14.15
-9.61
-4.69
0.16
4.61
8.47
11.73
14.52
17.02
19.36
21.63
23.74
25.58
26.98
27.77
27.82
27.00
25.27
22.65
19.34
15.63
11.88
8.36
5.14
2.12
-0.94
-4.19
-7.64
-11.12
-14.39
-17.21
-19.48
-21.19
-22.47
-23.46
-24.34
-25.31
-26.53
-28.12
-30.05
-32.13
-33.96
-35.03
-34.88
-33.21
-30.00
-25.54
-20.31
-14.86
-9.64
-4.95
-0.95
2.36
4.98
6.97
8.38
9.29
9.86
10.25
10.61
11.02
11.51
12.03
12.51
12.93
13.26
13.53
13.73
13.86
13.88
13.71
13.24
12.31
10.76
8.50
5.58
2.16
-1.44
-4.94
-8.13
-10.97
-13.57
-16.07
-18.59
-21.14
-23.63
-25.85
-27.47
-28.09
-27.35
-25.02
-21.17
-16.18
-10.62
-5.12
-0.11
4.23
7.95
11.14
13.83
15.93
17.36
18.17
18.58
18.91
19.41
20.10
20.75
20.96
20.40
19.02
16.99
14.68
12.39
10.18
7.87
5.16
1.82
-2.15
-6.54
-10.99
-15.17
-18.84
-21.98
-24.65
-26.96
-29.04
-30.98
-32.85
-34.67
-36.33
-37.55
-37.94
-37.12
-34.85
-31.15
-26.29
-20.71
-14.88
-9.17
-3.84
1.01
5.33
9.11
12.34
15.01
17.09
18.58
19.53
20.06
20.37
20.66
21.15
21.89
22.80
23.67
24.23
24.26
23.68
22.52
20.95
19.14
17.21
15.18
13.04
10.77
8.41
6.02
3.67
1.37
-0.89
-3.19
-5.56
-8.04
-10.59
-13.14
-15.57
-17.70
-19.31
-20.13
-19.90
-18.43
-15.67
-11.76
-7.02
-1.89
3.22
8.00
12.34
16.24
19.79
23.00
25.85
28.22
30.04
31.33
32.19
32.74
33.05
33.12
32.89
32.29
31.26
29.83
28.06
26.01
23.76
21.35
18.82
16.23
13.65
11.14
8.74
6.45
4.27
2.14
0.05
-1.98
-3.92
-5.72
-7.38
-8.97
-10.65
-12.62
-15.06
-17.97
-21.20
-24.36
-26.93
-28.36
-28.28
-26.56
-23.43
-19.40
-15.08
-11.04
-7.57
-4.68
-2.18
0.14
2.33
4.25
5.67
6.48
6.73
6.69
6.64
6.77
7.04
7.32
7.44
7.35
7.13
6.92
6.80
6.74
6.64
6.32
5.63
4.43
2.62
0.23
-2.62
-5.67
-8.60
-11.21
-13.43
-15.34
-17.05
-18.63
-20.08
-21.43
-22.73
-24.08
-25.49
-26.79
-27.61
-27.49
-26.14
-23.50
-19.84
-15.56
-11.05
-6.66
-2.61
0.87
3.62
5.57
6.85
7.75
8.60
9.63
10.82
11.99
12.88
13.29
13.18
12.62
11.69
10.43
8.85
6.97
4.92
2.85
0.92
-0.85
-2.50
-4.16
-5.90
-7.68
-9.35
-10.78
-11.91
-12.82
-13.75
-14.97
-16.66
-18.78
-21.04
-22.97
-24.03
-23.79
-22.10
-19.12
-15.21
-10.80
-6.19
-1.46
3.43
8.53
13.75
18.78
23.24
26.78
29.24
30.69
31.36
31.53
31.44
31.18
30.80
30.31
29.78
29.26
28.85
28.60
28.56
28.72
29.05
29.49
29.91
30.15
29.95
29.03
27.16
24.19
20.12
15.08
9.33
3.19
-3.02
-9.03
-14.64
-19.76
-24.35
-28.45
-32.02
-34.87
-36.68
-37.03
-35.56
-32.20
-27.21
-21.20
-14.87
-8.86
-3.48
1.15
5.14
8.57
11.43
13.63
15.05
15.67
15.55
14.87
13.75
12.25
10.30
7.76
4.50
0.48
-4.15
-9.14
-14.10
-18.71
-22.70
-25.99
-28.56
-30.46
-31.76
-32.50
-32.73
-32.55
-32.10
-31.53
-31.00
-30.58
-30.33
-30.27
-30.43
-30.84
-31.53
-32.47
-33.52
-34.45
-34.91
-34.51
-32.94
-29.98
-25.67
-20.20
-13.98
-7.45
-1.04
4.96
10.41
15.27
19.53
23.07
25.72
27.24
27.50
26.57
24.67
22.13
19.22
16.05
12.55
8.55
3.96
-1.19
-6.64
-12.07
-17.09
-21.44
-24.92
-27.46
-29.02
-29.64
-29.38
-28.34
-26.64
-24.43
-21.78
-18.77
-15.47
-12.04
-8.74
-5.92
-3.87
-2.74
-2.44
-2.65
-2.94
-2.90
-2.24
-0.84
1.26
3.93
6.96
10.12
13.20
16.00
18.36
20.20
21.51
22.36
22.83
23.04
23.09
23.05
22.99
22.92
22.82
22.61
22.20
21.57
20.74
19.80
18.80
17.70
16.38
14.66
12.44
9.74
6.76
3.76
0.93
-1.64
-3.99
-6.19
-8.29
-10.33
-12.35
-14.45
-16.72
-19.16
-21.54
-23.43
-24.32
-23.79
-21.72
-18.27
-13.88
-9.07
-4.30
0.11
4.02
7.40
10.27
12.70
14.70
16.25
17.29
17.78
17.74
17.32
16.75
16.20
15.80
15.45
15.01
14.28
13.17
11.73
10.13
8.55
7.12
5.80
4.46
2.89
0.96
-1.37
-4.00
-6.77
-9.45
-11.92
-14.07
-15.98
-17.78
-19.63
-21.61
-23.62
-25.34
-26.35
-26.25
-24.77
-21.90
-17.84
-12.93
-7.58
-2.17
3.00
7.67
11.70
15.04
17.72
19.75
21.19
22.05
22.39
22.36
22.15
21.95
21.86
21.86
21.84
21.66
21.26
20.66
20.00
19.35
18.71
17.94
16.82
15.18
12.96
10.28
7.35
4.42
1.61
-1.09
-3.81
-6.65
-9.70
-12.95
-16.37
-19.95
-23.63
-27.26
-30.46
-32.72
-33.45
-32.26
-29.07
-24.21
-18.29
-11.96
-5.77
-0.04
5.13
9.75
13.84
17.37
20.30
22.62
24.35
25.62
26.55
27.27
27.81
28.09
28.03
27.57
26.74
25.67
24.53
23.46
22.46
21.42
20.11
18.35
16.06
13.32
10.28
7.13
4.02
1.01
-1.85
-4.56
-7.12
-9.57
-12.01
-14.64
-17.64
-21.13
-25.02
-29.02
-32.61
-35.16
-36.09
-34.99
-31.75
-26.64
-20.29
-13.50
-7.13
-1.78
2.33
5.30
7.46
9.12
10.45
11.44
12.06
12.39
12.63
13.11
14.08
15.57
17.36
19.03
20.14
20.44
19.88
18.65
17.02
15.27
13.56
11.93
10.33
8.67
6.87
4.89
2.74
0.42
-2.07
-4.74
-7.62
-10.72
-14.06
-17.64
-21.34
-24.98
-28.19
-30.56
-31.64
-31.13
-29.00
-25.50
-21.11
-16.35
-11.65
-7.27
-3.31
0.18
3.15
5.52
7.23
8.24
8.68
8.75
8.71
8.77
9.04
9.47
9.90
10.15
10.08
9.58
8.64
7.31
5.69
3.89
2.12
0.60
-0.42
-0.78
-0.49
0.26
1.06
1.48
1.17
-0.06
-2.17
-4.95
-8.13
-11.43
-14.60
-17.37
-19.49
-20.72
-20.84
-19.73
-17.42
-14.02
-9.70
-4.68
0.87
6.71
12.53
17.93
22.52
25.99
28.19
29.19
29.21
28.59
27.67
26.71
25.88
25.21
24.62
23.99
23.23
22.37
21.58
21.13
21.27
22.05
23.29
24.57
25.34
25.09
23.44
20.20
15.44
9.37
2.33
-5.35
-13.39
-21.55
-29.59
-37.13
-43.65
-48.53
-51.18
-51.31
-48.98
-44.64
-38.98
-32.64
-26.14
-19.73
-13.57
-7.78
-2.60
1.71
4.98
7.21
8.65
9.68
10.69
11.88
13.27
14.66
15.83
16.58
16.86
16.73
16.30
15.72
15.04
14.28
13.43
12.45
11.27
9.83
8.11
6.13
3.97
1.74
-0.45
-2.55
-4.63
-6.82
-9.27
-12.09
-15.22
-18.40
-21.24
-23.30
-24.25
-23.91
-22.29
-19.53
-15.88
-11.61
-7.01
-2.38
2.01
5.93
9.24
11.91
13.99
15.56
16.69
17.41
17.73
17.69
17.37
16.85
16.22
15.49
14.70
13.86
13.00
12.16
11.34
10.51
9.63
8.66
7.65
6.70
5.93
5.44
5.26
5.35
5.62
5.94
6.15
6.06
5.45
4.19
2.23
-0.36
-3.37
-6.53
-9.51
-11.98
-13.65
-14.31
-13.84
-12.32
-9.97
-7.14
-4.20
-1.42
1.08
3.28
5.21
6.89
8.29
9.35
10.03
10.36
10.46
10.42
10.33
10.21
10.08
9.94
9.83
9.78
9.75
9.63
9.28
8.57
7.49
6.14
4.66
3.18
1.70
0.14
-1.55
-3.37
-5.26
-7.13
-8.90
-10.62
-12.37
-14.18
-16.04
-17.92
-19.84
-21.84
-23.96
-26.10
-27.94
-29.03
-28.91
-27.35
-24.39
-20.37
-15.73
-10.85
-5.93
-1.06
3.68
8.17
12.16
15.42
17.83
19.46
20.51
21.29
22.03
22.87
23.88
25.05
26.38
27.85
29.34
30.62
31.35
31.23
30.10
28.05
25.34
22.25
18.92
15.33
11.38
7.03
2.44
-2.09
-6.27
-9.96
-13.26
-16.34
-19.38
-22.36
-25.20
-27.76
-29.99
-31.88
-33.38
-34.27
-34.17
-32.68
-29.57
-24.93
-19.16
-12.84
-6.52
-0.71
4.28
8.20
10.94
12.51
13.11
13.05
12.73
12.49
12.49
12.80
13.38
14.18
15.12
16.09
16.83
16.98
16.17
14.13
10.82
6.44
1.36
-3.98
-9.20
-14.01
-18.27
-21.90
-24.87
-27.18
-28.86
-30.02
-30.86
-31.70
-32.83
-34.45
-36.60
-39.03
-41.32
-42.91
-43.31
-42.20
-39.55
-35.64
-30.88
-25.80
-20.84
-16.36
-12.55
-9.54
-7.35
-5.97
-5.30
-5.10
-5.10
-4.96
-4.46
-3.55
-2.42
-1.36
-0.68
-0.53
-0.83
-1.32
-1.73
-1.94
-2.00
-2.15
-2.63
-3.54
-4.83
-6.28
-7.74
-9.08
-10.35
-11.65
-13.11
-14.82
-16.84
-19.20
-21.85
-24.62
-27.16
-28.97
-29.56
-28.53
-25.84
-21.72
-16.72
-11.40
-6.26
-1.55
2.69
6.53
10.04
13.20
15.89
17.95
19.32
20.04
20.32
20.45
20.66
21.08
21.66
22.27
22.70
22.86
22.70
22.26
21.62
20.84
19.99
19.13
18.25
17.33
16.28
15.03
13.55
11.88
10.14
8.48
6.96
5.52
4.02
2.23
-0.02
-2.72
-5.66
-8.42
-10.50
-11.42
-10.91
-8.97
-5.89
-2.19
1.60
5.03
7.83
9.95
11.39
12.21
12.38
11.85
10.60
8.68
6.27
3.66
1.17
-0.92
-2.47
-3.48
-4.02
-4.22
-4.19
-4.01
-3.78
-3.57
-3.50
-3.64
-4.05
-4.74
-5.70
-6.84
-8.08
-9.24
-10.19
-10.80
-11.07
-11.11
-11.10
-11.21
-11.57
-12.20
-13.14
-14.41
-16.08
-18.14
-20.42
-22.54
-23.99
-24.25
-23.01
-20.23
-16.17
-11.28
-6.05
-0.91
3.91
8.27
12.17
15.60
18.55
21.00
22.88
24.20
25.00
25.35
25.35
25.09
24.57
23.80
22.78
21.56
20.28
19.04
17.87
16.71
15.39
13.81
11.92
9.84
7.77
5.88
4.22
2.72
1.20
-0.46
-2.32
-4.28
-6.20
-8.02
-9.76
-11.60
-13.74
-16.32
-19.25
-22.20
-24.64
-26.05
-26.07
-24.67
-22.06
-18.62
-14.67
-10.46
-6.13
-1.84
2.22
5.76
8.53
10.40
11.40
11.72
11.63
11.37
11.14
11.10
11.29
11.71
12.33
13.02
13.69
14.23
14.59
14.72
14.62
14.26
13.61
12.66
11.36
9.74
7.85
5.78
3.61
1.41
-0.80
-3.03
-5.29
-7.58
-9.88
-12.16
-14.32
-16.28
-17.78
-18.55
-18.24
-16.67
-13.87
-10.11
-5.84
-1.52
2.53
6.18
9.41
12.24
14.57
16.24
17.11
17.21
16.81
16.28
15.99
16.10
16.52
16.96
17.11
16.82
16.09
15.12
14.15
13.30
12.58
11.85
10.94
9.73
8.23
6.55
4.83
3.15
1.49
-0.24
-2.19
-4.42
-6.90
-9.53
-12.22
-14.94
-17.70
-20.50
-23.23
-25.59
-27.18
-27.54
-26.40
-23.78
-19.93
-15.34
-10.46
-5.69
-1.28
2.66
6.05
8.84
10.96
12.42
13.29
13.76
14.06
14.38
14.84
15.43
16.07
16.63
17.00
17.12
16.99
16.65
16.15
15.54
14.83
14.01
13.08
12.02
10.83
9.51
8.06
6.57
5.13
3.88
2.86
2.04
1.39
0.90
0.71
1.00
1.87
3.19
4.59
5.64
6.15
6.37
6.92
8.40
11.04
14.44
17.73
19.97
20.62
19.69
17.65
15.03
12.17
9.06
5.55
1.57
-2.65
-6.67
-10.02
-12.38
-13.72
-14.27
-14.33
-14.16
-13.92
-13.67
-13.37
-13.00
-12.52
-12.00
-11.55
-11.32
-11.46
-11.98
-12.80
-13.68
-14.36
-14.71
-14.77
-14.80
-15.08
-15.85
-17.12
-18.77
-20.56
-22.28
-23.76
-24.87
-25.42
-25.16
-23.83
-21.23
-17.38
-12.53
-7.15
-1.76
3.22
7.54
11.06
13.76
15.63
16.71
17.08
16.93
16.49
16.00
15.63
15.38
15.17
14.89
14.45
13.84
13.06
12.17
11.20
10.17
9.05
7.81
6.38
4.64
2.55
0.14
-2.45
-4.99
-7.25
-9.09
-10.50
-11.58
-12.48
-13.33
-14.23
-15.19
-16.20
-17.14
-17.80
-17.98
-17.47
-16.20
-14.25
-11.78
-8.99
-6.10
-3.21
-0.43
2.17
4.48
6.39
7.78
8.60
8.85
8.58
7.88
6.87
5.68
4.51
3.50
2.74
2.22
1.84
1.45
0.91
0.17
-0.77
-1.78
-2.75
-3.58
-4.20
-4.67
-5.05
-5.44
-5.87
-6.32
-6.76
-7.16
-7.60
-8.24
-9.28
-10.85
-12.94
-15.32
-17.64
-19.52
-20.63
-20.77
-19.90
-18.14
-15.72
-12.97
-10.22
-7.68
-5.40
-3.32
-1.33
0.63
2.49
4.14
5.47
6.47
7.20
7.80
8.36
8.90
9.42
9.91
10.41
10.97
11.61
12.31
12.99
13.54
13.81
13.71
13.20
12.23
10.85
9.14
7.25
5.36
3.64
2.20
1.07
0.18
-0.63
-1.51
-2.64
-4.15
-6.04
-8.20
-10.40
-12.30
-13.56
-13.91
-13.20
-11.38
-8.49
-4.62
0.02
5.14
10.30
15.06
19.05
22.12
24.39
26.15
27.70
29.17
30.47
31.34
31.54
30.98
29.80
28.29
26.76
25.43
24.36
23.49
22.69
21.85
20.89
19.69
18.13
16.11
13.52
10.39
6.83
2.99
-0.96
-4.90
-8.72
-12.31
-15.54
-18.30
-20.59
-22.47
-24.15
-25.85
-27.70
-29.67
-31.50
-32.84
-33.30
-32.60
-30.62
-27.41
-23.11
-17.95
-12.23
-6.30
-0.60
4.41
8.39
11.17
12.78
13.41
13.30
12.63
11.51
10.08
8.51
7.04
5.90
5.20
4.88
4.77
4.62
4.28
3.64
2.72
1.57
0.25
-1.19
-2.67
-4.10
-5.42
-6.61
-7.69
-8.70
-9.67
-10.61
-11.51
-12.36
-13.13
-13.88
-14.67
-15.56
-16.59
-17.71
-18.72
-19.37
-19.35
-18.37
-16.27
-13.03
-8.84
-4.00
1.06
5.86
10.03
13.30
15.62
17.07
17.81
18.00
17.75
17.22
16.58
16.07
15.83
15.89
16.08
16.10
15.71
14.83
13.59
12.26
11.07
10.14
9.39
8.67
7.84
6.88
5.86
4.89
4.05
3.28
2.43
1.37
0.03
-1.56
-3.24
-4.88
-6.42
-7.87
-9.27
-10.52
-11.39
-11.54
-10.67
-8.66
-5.65
-2.01
1.86
5.63
9.13
12.33
15.25
17.92
20.29
22.31
23.94
25.22
26.22
27.01
27.59
27.85
27.64
26.83
25.44
23.61
21.61
19.65
17.86
16.18
14.44
12.48
10.18
7.55
4.67
1.70
-1.24
-4.07
-6.79
-9.44
-12.10
-14.81
-17.58
-20.35
-23.00
-25.38
-27.33
-28.74
-29.52
-29.60
-28.88
-27.31
-24.85
-21.58
-17.70
-13.55
-9.49
-5.83
-2.76
-0.29
1.70
3.33
4.65
5.64
6.25
6.51
6.49
6.29
5.98
5.53
4.86
3.94
2.82
1.58
0.36
-0.83
-2.04
-3.39
-5.02
-6.93
-9.11
-11.48
-14.03
-16.79
-19.85
-23.23
-26.85
-30.53
-34.02
-37.11
-39.77
-42.17
-44.67
-47.60
-51.11
-55.01
-58.70
-61.33
-62.02
-60.05
-55.08
-47.17
-36.76
-24.58
-11.55
1.38
13.39
23.95
32.83
40.08
45.84
50.24
53.21
54.54
53.95
51.28
46.64
40.46
33.40
26.23
19.49
13.41
7.92
2.63
-2.82
-8.57
-14.44
-19.92
-24.30
-26.83
-26.86
-23.93
-17.93
-9.08
1.82
13.51
24.38
32.83
37.74
38.73
36.23
31.23
24.92
18.36
12.23
6.93
2.67
-0.40
-2.29
-3.20
-3.67
-4.44
-6.34
-9.91
-15.24
-21.99
-29.42
-36.66
-42.85
-47.32
-49.67
-49.76
-47.66
-43.57
-37.71
-30.27
-21.43
-11.49
-0.95
9.43
18.77
26.21
31.08
33.07
32.27
29.05
23.95
17.60
10.63
3.66
-2.71
-7.96
-11.68
-13.77
-14.48
-14.41
-14.35
-14.91
-16.35
-18.40
-20.39
-21.55
-21.38
-19.74
-16.89
-13.24
-9.24
-5.25
-1.53
1.70
4.32
6.32
7.88
9.28
10.77
12.41
14.05
15.33
15.92
15.68
14.67
13.17
11.44
9.70
8.01
6.33
4.66
3.00
1.45
0.10
-1.01
-1.90
-2.64
-3.30
-3.94
-4.57
-5.20
-5.85
-6.60
-7.56
-8.79
-10.30
-11.95
-13.48
-14.54
-14.78
-13.92
-11.80
-8.43
-3.96
1.41
7.42
13.82
20.36
26.76
32.75
38.15
42.91
47.17
51.19
55.23
59.42
63.67
67.68
71.13
73.89
76.14
78.39
81.32
85.43
90.80
96.96
102.94
107.61
110.07
109.91
107.32
103.03
98.16
94.04
91.90
92.33
94.65
96.64
94.73
85.24
65.73
36.35
0.08
-38.23
-73.55
-102.35
-123.25
-136.59
-143.47
-144.94
-141.65
-134.33
-124.24
-113.30
-103.79
-97.29
-94.18
-93.62
-94.20
-94.44
-93.36
-90.73
-86.79
-82.48
-78.67
-76.13
-75.14
-75.76
-77.63
-80.21
-82.95
-84.97
-85.88
-84.89
-81.04
-72.87
-59.47
-40.85
-18.41
5.37
29.80
51.29
65.91
72.01
72.00
69.58
67.63
67.86
70.54
76.79
87.32
102.48
121.23
142.44
162.07
175.96
180.54
169.96
143.75
106.82
70.42
38.17
10.59
-12.72
-31.55
-45.80
-55.57
-60.47
-60.87
-57.70
-52.85
-47.29
-41.78
-36.81
-32.99
-30.71
-29.45
-28.58
-27.58
-26.56
-25.13
-23.13
-20.86
-19.17
-18.99
-20.59
-23.86
-28.42
-33.97
-39.70
-44.83
-48.83
-51.58
-53.09
-53.15
-51.50
-48.06
-43.06
-36.82
-29.81
-22.61
-15.70
-9.22
-2.85
3.96
11.65
20.25
29.40
38.44
46.65
53.50
58.81
62.68
65.28
66.64
66.57
64.81
61.14
55.63
48.62
40.65
32.30
23.99
15.96
8.26
0.83
-6.37
-13.28
-19.71
-25.35
-29.85
-32.93
-34.40
-34.24
-32.54
-29.46
-25.27
-20.31
-15.05
-9.99
-5.53
-1.80
1.35
4.28
7.42
11.02
15.18
19.91
25.28
31.47
38.68
46.99
56.27
66.06
75.74
84.57
91.83
96.88
99.16
98.36
94.52
88.01
79.47
69.44
58.16
45.46
30.97
14.44
-4.04
-24.06
-45.03
-66.36
-87.52
-107.94
-126.91
-143.51
-156.75
-165.82
-170.24
-170.04
-165.75
-158.33
-149.03
-139.21
-130.03
-122.16
-115.69
-110.20
-105.11
-100.01
-94.90
-90.04
-85.66
-81.71
-77.72
-72.94
-66.68
-58.46
-48.23
-36.27
-23.06
-9.11
5.10
19.18
32.72
45.32
56.60
66.20
73.81
79.19
82.15
82.57
80.43
75.83
69.06
60.52
50.70
40.04
28.94
17.69
6.56
-4.20
-14.29
-23.31
-30.78
-36.17
-39.01
-39.07
-36.55
-32.07
-26.57
-21.01
-16.02
-11.79
-8.05
-4.35
-0.27
4.40
9.67
15.35
21.18
26.95
32.50
37.74
42.59
46.94
50.56
53.20
54.70
55.15
54.92
54.59
54.62
55.15
55.83
55.92
54.56
50.91
44.34
34.50
21.45
5.92
-10.64
-26.14
-38.36
-45.60
-47.20
-43.68
-36.39
-26.92
-16.53
-5.99
4.19
13.55
21.51
27.58
31.65
34.25
36.36
39.01
42.79
47.52
52.26
55.83
57.27
56.34
53.59
50.11
47.00
45.02
44.26
44.25
44.18
43.20
40.74
36.63
31.17
25.00
19.02
14.13
11.14
10.42
11.80
14.61
17.89
20.87
23.39
26.05
30.02
36.42
45.63
56.91
68.38
77.61
82.49
81.84
75.71
65.18
51.76
37.00
22.25
8.54
-3.27
-12.60
-19.26
-23.58
-26.41
-28.92
-32.27
-37.17
-43.79
-51.74
-60.30
-68.67
-76.19
-82.40
-87.06
-90.10
-91.50
-91.34
-89.70
-86.82
-83.08
-78.96
-74.93
-71.32
-68.26
-65.63
-63.27
-61.00
-58.76
-56.54
-54.32
-51.96
-49.25
-45.96
-41.98
-37.34
-32.20
-26.83
-21.43
-16.12
-10.97
-6.06
-1.52
2.45
5.59
7.75
8.86
9.04
8.51
7.46
6.03
4.29
2.33
0.34
-1.33
-2.20
-1.83
-0.03
3.11
7.16
11.56
15.77
19.49
22.64
25.25
27.38
28.94
29.74
29.61
28.56
26.83
24.80
22.90
21.37
20.22
19.25
18.21
16.91
15.31
13.48
11.55
9.67
7.90
6.31
4.90
3.62
2.39
1.11
-0.31
-1.93
-3.71
-5.52
-7.14
-8.29
-8.62
-7.84
-5.72
-2.24
2.33
7.51
12.74
17.51
21.56
24.92
27.79
30.45
33.03
35.50
37.67
39.31
40.31
40.70
40.64
40.34
39.99
39.74
39.68
39.84
40.21
40.58
40.63
39.93
38.08
34.86
30.32
24.77
18.70
12.61
6.87
1.62
-3.28
-8.16
-13.35
-18.89
-24.42
-29.17
-32.24
-32.96
-31.23
-27.54
-22.78
-17.87
-13.39
-9.52
-6.20
-3.39
-1.28
-0.29
-0.86
-3.08
-6.55
-10.46
-13.86
-16.07
-16.95
-16.89
-16.50
-16.32
-16.39
-16.32
-15.33
-12.68
-8.04
-1.75
5.09
10.84
13.89
13.13
8.51
1.10
-7.05
-13.57
-16.40
-14.41
-7.77
2.19
13.35
23.45
30.75
34.50
35.14
34.18
33.64
35.36
40.17
47.35
54.77
59.60
59.42
53.22
41.84
27.66
13.66
2.39
-4.88
-8.25
-8.93
-8.56
-8.74
-10.69
-15.18
-22.53
-32.63
-45.03
-58.86
-72.97
-86.00
-96.62
-103.83
-107.25
-107.25
-104.86
-101.36
-97.87
-95.02
-92.87
-91.13
-89.41
-87.55
-85.62
-83.86
-82.48
-81.53
-80.89
-80.34
-79.68
-78.85
-77.88
-76.84
-75.75
-74.53
-73.04
-71.25
-69.33
-67.62
-66.57
-66.38
-66.92
-67.64
-67.78
-66.67
-63.99
-59.79
-54.45
-48.39
-41.82
-34.76
-27.02
-18.43
-8.94
1.31
12.07
23.02
33.90
44.47
54.53
63.78
71.88
78.50
83.43
86.68
88.45
89.02
88.60
87.33
85.35
82.89
80.29
77.87
75.78
73.77
71.42
68.22
63.91
58.53
52.39
45.87
39.36
33.25
27.95
23.93
21.45
20.47
20.46
20.64
20.23
18.88
16.77
14.50
12.77
12.03
12.42
13.76
15.77
18.13
20.57
22.81
24.62
25.87
26.68
27.43
28.72
31.07
34.86
40.09
46.56
53.99
62.03
70.31
78.23
84.82
88.66
88.12
81.80
69.19
51.19
30.25
9.87
-6.43
-16.19
-18.90
-15.89
-9.61
-2.49
3.93
9.23
13.64
17.42
20.45
22.44
23.33
23.75
24.95
28.30
34.71
44.14
55.58
67.53
78.51
87.56
94.36
99.10
102.09
103.58
103.67
102.37
99.73
95.74
90.30
83.02
73.33
60.60
44.53
25.34
3.82
-18.81
-41.21
-62.20
-80.82
-96.42
-108.55
-117.06
-122.08
-124.09
-123.77
-121.85
-118.90
-115.17
-110.61
-104.98
-98.11
-90.03
-81.07
-71.74
-62.63
-54.23
-46.84
-40.67
-35.77
-32.18
-29.83
-28.67
-28.61
-29.58
-31.59
-34.70
-38.94
-44.15
-49.99
-55.88
-61.10
-64.94
-66.82
-66.30
-63.21
-57.53
-49.48
-39.46
-28.02
-15.84
-3.63
7.89
18.15
26.78
33.71
39.14
43.53
47.43
51.22
55.02
58.60
61.50
63.21
63.35
61.70
58.25
53.11
46.46
38.61
29.96
20.98
12.07
3.54
-4.53
-12.06
-18.92
-24.78
-29.17
-31.64
-31.98
-30.29
-27.00
-22.65
-17.75
-12.71
-7.87
-3.57
-0.27
1.56
1.52
-0.48
-4.21
-9.06
-14.33
-19.36
-23.78
-27.54
-30.78
-33.73
-36.48
-39.01
-41.17
-42.84
-44.00
-44.69
-45.05
-45.10
-44.76
-43.78
-41.75
-38.22
-32.74
-24.98
-14.76
-2.13
12.60
28.82
45.70
62.21
77.38
90.44
100.94
108.79
114.14
117.28
118.44
117.76
115.23
110.84
104.53
96.33
86.30
74.57
61.31
46.77
31.31
15.39
-0.49
-15.86
-30.37
-43.81
-56.10
-67.10
-76.64
-84.44
-90.23
-93.80
-95.09
-94.17
-91.21
-86.51
-80.45
-73.54
-66.36
-59.54
-53.60
-48.89
-45.50
-43.30
-41.96
-41.08
-40.25
-39.23
-37.96
-36.60
-35.44
-34.68
-34.31
-34.01
-33.28
-31.70
-29.09
-25.65
-21.83
-18.14
-14.91
-12.17
-9.69
-7.02
-3.67
0.87
6.99
14.89
24.49
35.28
46.46
57.06
66.28
73.63
79.14
83.13
86.04
88.15
89.38
89.29
87.22
82.57
75.02
64.78
52.61
39.64
27.09
15.92
6.63
-0.77
-6.62
-11.34
-15.35
-19.03
-22.83
-27.22
-32.55
-38.83
-45.58
-51.91
-56.85
-59.50
-59.60
-57.57
-54.30
-50.61
-46.91
-43.23
-39.37
-35.29
-31.07
-27.15
-24.22
-22.96
-23.60
-25.81
-28.82
-31.77
-34.07
-34.98
-34.28
-32.35
-29.91
-27.57
-25.61
-23.94
-22.29
-20.30
-16.20
-8.74
1.89
14.03
25.57
35.00
41.70
45.96
48.72
54.18
65.56
83.20
104.48
125.88
144.89
160.44
172.52
181.73
193.49
211.77
236.39
263.17
287.31
306.10
319.16
327.58
332.87
342.50
361.84
390.81
424.22
455.92
482.28
502.26
516.08
486.20
393.49
247.77
83.33
-66.17
-184.06
-268.47
-324.30
-357.91
-375.66
-377.66
-363.26
-335.63
-302.22
-270.76
-245.97
-229.30
-220.34
-216.75
-211.95
-200.97
-183.14
-161.97
-141.89
-125.64
-113.95
-106.35
-101.96
-97.01
-88.58
-76.44
-63.02
-51.30
-43.12
-38.93
-38.27
-40.19
-42.14
-41.83
-38.55
-33.42
-28.52
-25.84
-26.70
-31.49
-39.82
-50.14
-60.71
-70.33
-78.62
-85.62
-91.28
-95.41
-97.78
-98.64
-98.35
-97.16
-95.15
-92.37
-88.91
-84.72
-79.43
-72.58
-64.23
-54.44
-43.15
-30.65
-17.98
-7.01
0.34
3.11
1.43
-3.99
-10.81
-15.45
-14.45
-6.07
8.83
27.55
46.84
62.87
70.79
67.28
51.98
27.79
-0.29
-27.41
-50.01
-66.69
-70.46
-59.71
-38.75
-14.53
8.30
28.29
44.31
52.13
52.39
46.82
37.36
27.14
19.55
16.56
20.40
29.43
40.47
50.77
58.08
60.58
58.04
51.70
43.42
34.70
25.84
16.95
8.73
1.75
-3.95
-8.28
-11.03
-12.00
-11.38
-9.96
-8.43
-6.83
-5.11
-3.26
-1.13
1.56
5.08
9.50
14.54
19.87
25.33
30.63
35.27
38.71
40.49
40.37
38.40
34.76
29.89
24.39
18.79
13.45
