1495528603.00
64.000000
-0.00
-0.00
-0.00
-0.00
-0.00
-0.00
-0.00
-0.00
-0.00
-0.00
0.00
0.01
0.01
-0.00
-0.03
-0.05
-0.05
0.00
0.13
0.36
0.66
1.01
1.37
1.72
2.06
2.40
2.79
3.24
3.80
4.42
5.06
5.66
6.20
6.68
7.15
7.68
8.31
9.14
10.09
11.04
11.88
12.56
13.14
13.76
14.65
15.96
17.91
20.32
22.90
25.38
27.58
29.57
31.68
34.32
37.81
42.54
48.15
54.10
59.83
64.97
69.58
74.14
79.34
85.71
93.76
103.00
112.62
121.73
129.77
136.75
143.30
150.75
157.77
166.64
177.95
191.79
206.97
220.57
228.25
225.36
208.53
176.87
132.76
80.05
23.07
-34.94
-92.44
-149.16
-205.23
-260.37
-313.74
-363.87
-409.83
-450.91
-486.50
-515.74
-537.23
-549.23
-549.96
-538.36
-514.18
-478.64
-433.85
-382.46
-327.10
-270.01
-212.91
-157.02
-103.35
-52.78
-6.30
35.20
71.03
100.91
124.98
143.76
157.99
168.41
175.62
180.02
181.83
181.27
178.56
174.08
168.28
161.64
154.54
147.24
139.80
132.20
124.34
116.24
108.00
99.82
91.96
84.59
77.76
71.32
65.04
58.71
52.20
45.64
39.27
33.44
28.39
24.15
20.50
17.02
13.34
9.24
4.83
0.46
-3.44
-6.53
-8.72
-10.18
-11.26
-12.36
-13.90
-16.32
-19.94
-24.58
-29.28
-32.24
-31.28
-24.88
-12.99
2.48
18.40
31.48
39.60
42.47
41.24
37.71
33.30
28.86
24.88
21.94
20.69
21.56
24.20
27.38
29.43
29.06
25.95
20.87
15.27
10.49
7.24
5.51
4.82
4.63
4.53
4.31
3.85
3.05
1.90
0.56
-0.61
-1.22
-0.87
0.49
2.63
4.98
6.84
7.66
7.25
5.80
3.83
1.88
0.33
-0.74
-1.42
-1.86
-2.07
-2.03
-1.70
-1.14
-0.49
0.07
0.51
0.92
1.49
2.36
3.55
4.96
6.45
7.94
9.37
10.73
11.94
12.90
13.48
13.56
13.11
12.17
10.88
9.34
7.78
6.15
4.41
2.46
0.23
-2.31
-5.04
-7.74
-10.19
-12.20
-13.70
-14.67
-15.16
-15.21
-14.90
-14.30
-13.52
-12.66
-11.81
-11.02
-10.33
-9.76
-9.30
-8.94
-8.59
-8.15
-7.57
-6.86
-6.17
-5.64
-5.34
-5.24
-5.21
-5.11
-4.87
-4.51
-4.07
-3.53
-2.84
-1.85
-0.52
1.04
2.59
3.81
4.42
4.32
3.57
2.42
1.18
0.16
-0.48
-0.74
-0.72
-0.61
-0.54
-0.58
-0.70
-0.83
-0.91
-0.90
-0.76
-0.49
-0.11
0.31
0.67
0.84
0.70
0.21
-0.51
-1.28
-1.93
-2.39
-2.77
-3.25
-4.05
-5.18
-6.47
-7.54
-7.96
-7.45
-5.96
-3.72
-1.11
1.49
3.78
5.60
6.92
7.72
8.00
7.79
7.11
6.03
4.68
3.25
1.92
0.87
0.21
-0.08
-0.13
-0.12
-0.23
-0.55
-1.09
-1.77
-2.54
-3.36
-4.22
-5.12
-6.01
-6.85
-7.67
-8.53
-9.52
-10.65
-11.85
-12.88
-13.49
-13.38
-12.40
-10.50
-7.84
-4.70
-1.47
1.45
3.78
5.38
6.31
6.73
6.82
6.73
6.49
6.10
5.57
4.95
4.31
3.73
3.31
3.08
3.04
3.16
3.32
3.38
3.21
2.76
2.10
1.38
0.75
0.29
-0.05
-0.40
-0.88
-1.57
-2.42
-3.27
-3.95
-4.26
-4.08
-3.36
-2.16
-0.63
1.02
2.53
3.71
4.44
4.75
4.74
4.54
4.28
4.05
3.87
3.70
3.47
3.14
2.72
2.27
1.90
1.69
1.69
1.84
2.05
2.25
2.41
2.55
2.67
2.76
2.77
2.61
2.24
1.65
0.91
0.05
-0.88
-1.85
-2.83
-3.75
-4.49
-4.92
-4.92
-4.39
-3.34
-1.90
-0.24
1.44
2.98
4.27
5.24
5.89
6.20
6.20
5.96
5.57
5.11
4.63
4.14
3.61
3.01
2.34
1.67
1.04
0.53
0.14
-0.16
-0.41
-0.68
-1.01
-1.43
-1.96
-2.65
-3.55
-4.75
-6.25
-8.00
-9.81
-11.45
-12.64
-13.20
-13.01
-12.04
-10.37
-8.13
-5.54
-2.88
-0.48
1.38
2.53
2.97
2.88
2.49
2.06
1.72
1.51
1.40
1.32
1.28
1.28
1.39
1.59
1.83
1.98
1.98
1.81
1.56
1.28
1.03
0.76
0.37
-0.24
-1.08
-1.99
-2.69
-2.86
-2.35
-1.19
0.44
2.21
3.80
4.97
5.69
6.09
6.37
6.71
7.15
7.73
8.33
8.64
8.29
7.21
5.71
4.36
3.75
4.25
6.12
9.06
12.14
14.23
14.81
14.16
13.18
12.94
14.10
17.09
21.42
25.78
28.62
29.39
28.73
28.06
29.04
32.96
41.45
55.25
73.51
93.32
110.96
122.55
125.06
117.22
96.17
64.79
31.33
4.99
-10.62
-17.04
-18.09
-16.62
-13.55
-9.32
-3.50
3.40
9.68
10.89
5.55
-5.56
-19.88
-34.33
-47.48
-58.33
-67.16
-75.25
-85.97
-101.35
-121.83
-146.91
-170.18
-188.79
-201.26
-207.74
-199.36
-173.83
-134.58
-89.29
-45.25
-6.32
25.92
52.09
73.00
89.55
100.14
104.21
102.70
97.97
92.69
88.09
84.83
81.66
78.19
71.87
61.42
47.12
30.89
15.33
2.12
-7.70
-14.55
-18.97
-23.51
-29.76
-38.12
-47.81
-57.92
-68.95
-76.57
-79.99
-71.63
-49.74
-17.56
17.94
50.74
78.30
100.65
119.18
134.72
147.72
157.49
164.03
166.53
164.79
161.06
157.85
156.90
158.27
161.05
163.63
165.29
162.42
153.24
138.74
120.91
99.93
78.74
57.49
35.83
14.17
-12.31
-46.03
-84.95
-124.57
-161.59
-195.33
-226.97
-257.44
-286.63
-321.65
-366.73
-420.32
-477.26
-533.39
-587.49
-640.78
-695.05
-702.75
-642.45
-528.58
-395.75
-268.25
-152.43
-46.91
48.03
129.00
192.13
228.68
237.26
225.91
207.32
190.97
180.16
173.98
170.86
170.62
168.41
161.90
152.83
145.18
141.48
141.38
143.24
145.18
145.76
140.35
126.42
105.30
81.12
57.91
37.99
22.22
10.52
2.49
-3.95
-10.03
-15.46
-19.08
-20.15
-19.82
-19.12
-18.61
-18.18
-18.01
-18.04
-18.07
-17.99
-18.08
-18.83
-20.48
-22.88
-25.58
-27.95
-29.47
-29.84
-29.07
-27.45
-25.46
-23.54
-22.10
-21.50
-21.94
-23.38
-25.51
-27.80
-29.52
-30.00
-28.72
-25.59
-20.93
-15.36
-9.58
-4.12
0.67
4.68
7.89
10.33
11.98
12.85
13.01
12.59
11.83
10.92
10.05
9.31
8.73
8.35
8.11
7.91
7.55
6.73
5.09
2.37
-1.55
-6.49
-11.90
-16.96
-20.76
-22.47
-21.62
-18.17
-12.58
-5.62
1.83
8.99
15.23
20.23
23.89
26.30
27.71
28.39
28.58
28.46
28.10
27.55
26.84
25.98
24.90
23.47
21.50
18.90
15.75
12.34
9.08
6.27
3.94
1.78
-0.73
-4.03
-8.26
-13.06
-17.63
-20.93
-21.94
-20.02
-15.05
-7.47
1.81
11.69
21.10
29.24
35.59
39.98
42.44
43.22
42.66
41.20
39.27
37.28
35.46
33.87
32.46
31.12
29.77
28.41
27.05
25.65
24.09
22.17
19.73
16.70
13.22
9.58
6.08
2.98
0.29
-2.18
-4.77
-7.85
-11.62
-16.01
-20.61
-24.72
-27.47
-28.09
-26.03
-21.18
-13.93
-5.03
4.61
14.10
22.77
30.22
36.21
40.67
43.61
45.18
45.69
45.58
45.32
45.24
45.46
45.86
46.19
46.21
45.82
45.04
44.04
43.01
42.05
41.40
41.06
40.77
40.11
38.78
36.75
34.27
31.72
29.45
27.88
27.04
26.60
25.99
24.80
22.93
20.57
18.08
15.84
14.84
15.77
18.89
24.04
30.94
39.35
49.03
59.54
70.31
82.24
95.56
109.27
121.62
131.29
138.15
143.00
146.98
151.14
159.33
173.45
192.16
211.68
228.22
239.54
244.91
244.49
239.08
235.11
237.11
245.36
256.51
267.07
275.51
281.97
287.18
291.81
302.76
323.27
350.21
375.68
392.35
397.07
390.71
376.34
315.67
196.15
36.90
-122.82
-252.15
-341.25
-394.55
-421.15
-430.16
-428.60
-414.82
-388.38
-353.27
-316.62
-284.25
-258.29
-238.14
-223.62
-213.87
-203.08
-187.54
-167.99
-147.94
-130.09
-114.81
-101.21
-89.63
-80.74
-72.16
-62.47
-53.46
-47.83
-47.15
-52.38
-59.62
-69.83
-85.76
-108.63
-138.60
-176.55
-219.54
-259.53
-285.58
-288.47
-264.95
-217.48
-153.07
-82.88
-23.82
11.00
17.14
-1.09
-34.93
-75.94
-117.08
-153.92
-185.83
-220.58
-264.61
-318.44
-376.75
-432.03
-477.79
-508.44
-520.06
-476.64
-368.81
-220.58
-71.61
51.43
141.91
202.52
235.80
246.64
237.58
207.74
162.35
113.43
74.22
54.49
55.06
70.07
91.10
110.30
118.96
114.26
99.99
83.01
67.79
53.44
35.34
8.54
-29.36
-78.16
-131.17
-176.24
-200.64
-196.77
-165.53
-114.78
-56.07
-1.55
37.32
52.78
41.81
6.15
-48.23
-111.91
-173.22
-220.80
-247.03
-250.59
-235.76
-210.06
-181.18
-154.68
-133.26
-117.21
-105.51
-96.97
-90.41
-84.59
-78.08
-69.62
-58.55
-45.27
-31.10
-17.70
-6.42
2.39
9.41
16.01
23.70
33.57
45.92
60.11
74.65
87.63
97.33
102.98
105.12
105.60
106.83
110.90
118.61
129.29
141.02
151.62
159.42
163.85
165.48
165.59
165.72
167.10
170.69
176.85
185.45
196.13
208.43
221.89
235.51
247.54
255.54
257.08
250.34
234.70
210.75
180.02
144.32
105.53
65.92
28.83
-0.75
-17.90
-19.91
-7.92
13.10
36.31
55.64
68.02
74.07
78.20
84.45
94.07
105.22
114.85
121.02
123.82
124.81
125.92
131.54
144.22
163.71
187.37
212.10
235.56
256.01
271.73
281.16
288.16
296.23
306.68
318.43
330.04
341.06
351.16
358.79
360.91
360.44
359.56
358.47
355.63
350.23
343.19
335.83
328.21
280.39
173.80
19.72
-145.42
-286.37
-387.27
-450.16
-485.33
-503.52
-512.21
-508.91
-490.86
-459.45
-421.17
-383.83
-352.82
-330.08
-315.06
-305.73
-294.55
-276.17
-249.97
-219.97
-191.39
-167.78
-150.24
-138.27
-130.48
-122.04
-109.60
-92.88
-74.35
-57.25
-43.70
-34.34
-29.07
-27.44
-26.54
-24.32
-20.34
-15.40
-10.52
-6.28
-2.91
-1.09
-1.07
-0.74
1.28
4.97
10.15
16.59
24.04
31.95
37.93
40.28
41.25
42.56
44.33
47.50
53.18
61.97
73.18
82.72
87.32
90.01
92.77
94.87
96.68
98.74
100.77
99.76
87.73
63.27
31.50
-5.14
-48.45
-98.19
-151.51
-202.94
-225.03
-199.97
-165.01
-135.83
-105.91
-80.46
-64.78
-60.75
-65.96
-78.91
-99.27
-124.99
-148.02
-166.47
-185.39
-208.86
-238.44
-272.84
-313.30
-359.28
-405.10
-437.95
-450.16
-442.16
-417.33
-380.69
-307.29
-197.48
-75.03
31.45
109.86
160.83
189.42
202.42
206.10
205.60
199.81
188.33
173.51
160.17
150.42
143.21
137.34
132.35
128.72
123.58
115.96
107.74
102.38
101.70
105.21
111.17
116.82
118.81
111.74
93.33
65.88
35.12
7.45
-12.36
-22.05
-22.28
-15.70
-6.65
1.96
9.47
16.55
24.17
31.56
38.26
44.20
49.83
55.44
61.32
67.33
72.41
74.43
70.79
59.65
40.69
15.49
-12.87
-40.91
-66.25
-88.44
-108.94
-130.07
-153.18
-177.71
-200.80
-218.28
-226.19
-222.26
-206.72
-182.29
-153.15
-123.74
-97.80
-77.47
-63.04
-53.13
-45.47
-37.83
-28.78
-17.85
-5.35
8.08
22.25
37.76
55.77
77.25
102.00
128.23
153.07
173.54
187.63
195.11
197.53
197.17
195.58
192.92
188.29
181.34
172.38
162.24
151.67
141.23
131.54
123.70
119.55
121.04
129.90
144.37
158.07
161.86
148.15
115.09
67.73
16.40
-27.30
-52.88
-56.35
-41.38
-16.96
7.35
25.38
34.97
37.77
37.33
40.13
50.91
70.66
96.09
122.10
144.43
159.66
166.71
149.24
101.25
32.26
-37.52
-92.96
-130.78
-154.88
-172.29
-187.93
-204.25
-219.31
-229.60
-231.24
-223.00
-205.83
-181.07
-152.13
-121.30
-89.78
-57.74
-24.23
13.83
57.59
100.13
144.00
181.95
208.00
218.09
212.80
185.89
141.98
93.85
54.63
30.04
16.20
8.07
2.80
0.92
4.11
14.15
28.24
40.84
47.44
45.40
36.56
25.03
14.97
8.88
8.28
10.64
11.52
6.96
-5.63
-25.54
-49.89
-75.44
-100.02
-115.36
-118.60
-110.84
-96.05
-79.61
-65.86
-57.21
-54.10
-55.30
-58.29
-61.97
-65.94
-70.14
-74.42
-78.04
-79.91
-79.38
-76.11
-69.88
-61.74
-52.83
-44.19
-36.21
-28.51
-20.37
-11.94
-3.83
2.98
6.84
6.28
0.60
-9.47
-21.73
-33.22
-42.50
-48.63
-51.02
-49.81
-45.96
-40.93
-36.03
-31.97
-29.04
-29.51
-34.66
-44.08
-55.89
-68.10
-79.39
-88.92
-96.26
-101.48
-107.76
-117.25
-129.82
-143.19
-154.85
-163.07
-166.80
-165.40
-141.92
-90.98
-22.42
44.89
97.67
132.61
152.70
162.82
167.64
170.20
169.41
164.56
155.11
142.52
129.02
116.81
107.69
102.69
101.02
99.00
94.11
83.81
68.44
50.49
33.37
19.92
11.80
7.66
4.13
-0.86
-11.03
-28.02
-51.82
-81.21
-114.48
-149.34
-184.79
-220.49
-234.65
-215.97
-166.88
-102.66
-40.73
5.10
38.88
65.31
88.16
111.01
130.32
142.42
145.97
143.39
139.50
139.32
144.08
147.25
144.51
131.97
110.24
83.82
59.47
43.59
40.04
47.31
60.45
74.15
82.02
80.16
68.97
52.97
38.47
30.87
31.68
39.14
50.38
62.73
73.09
79.43
81.16
78.58
72.45
63.44
52.53
41.61
32.06
24.33
18.23
13.46
9.78
7.12
5.05
2.05
-3.70
-13.98
-29.97
-51.67
-77.89
-106.87
-136.97
-167.18
-197.89
-228.23
-254.77
-272.27
-275.73
-262.29
-232.12
-188.11
-134.73
-79.02
-26.18
21.46
62.89
96.11
117.86
125.72
120.13
104.86
81.95
55.11
29.35
8.49
-7.56
-22.26
-39.35
-60.80
-87.08
-123.27
-172.44
-232.58
-297.19
-358.68
-410.13
-445.38
-460.04
-422.74
-328.01
-202.45
-85.79
-2.03
46.71
70.11
80.47
88.09
98.55
107.97
111.89
109.81
106.02
104.42
106.47
112.81
125.03
144.62
168.58
194.71
223.77
258.39
299.77
339.18
357.58
342.08
293.23
223.39
151.04
91.58
52.27
31.38
21.71
16.68
13.95
13.78
15.42
17.07
16.91
14.56
10.26
4.05
-3.55
-11.06
-17.62
-23.88
-32.06
-44.49
-61.67
-82.69
-105.38
-126.12
-140.56
-146.23
-144.21
-139.11
-136.52
-138.85
-144.40
-148.40
-145.43
-132.20
-109.61
-82.45
-54.76
-35.03
-27.33
-29.72
-37.14
-45.05
-51.21
-55.29
-57.52
-58.08
-56.35
-51.07
-41.71
-29.03
-14.51
0.68
16.44
34.33
53.33
74.27
99.41
130.85
168.84
210.53
249.90
278.95
290.27
279.76
248.67
202.87
149.91
95.83
43.85
-4.72
-48.36
-84.04
-108.09
-118.40
-117.15
-111.28
-109.87
-119.61
-141.27
-169.16
-194.03
-207.82
-207.01
-193.75
-173.90
-153.65
-136.86
-124.32
-114.66
-106.09
-97.61
-88.97
-80.12
-70.31
-57.90
-41.00
-18.68
7.97
35.78
60.29
77.46
85.15
83.81
75.98
64.83
52.71
40.24
26.69
11.10
-6.44
-24.13
-38.74
-46.84
-46.09
-36.23
-19.13
1.92
23.27
42.00
56.34
65.63
69.90
69.67
65.76
59.49
52.64
47.17
44.59
45.37
48.63
52.41
54.47
53.07
47.65
38.84
28.10
17.04
6.88
-1.73
-8.71
-14.32
-18.88
-22.62
-25.38
-26.51
-24.84
-19.10
-8.45
6.87
25.19
43.62
58.73
67.45
67.96
60.12
45.56
27.31
9.17
-5.10
-12.66
-12.37
-5.18
6.05
17.47
25.43
27.66
23.84
15.48
5.16
-4.34
-10.66
-12.11
-7.60
3.21
19.56
39.09
57.83
71.01
74.62
67.04
49.90
27.57
5.46
-12.01
-22.76
-27.09
-26.59
-22.76
-16.21
-6.78
5.62
20.27
35.53
49.41
60.42
68.29
73.80
78.21
82.27
85.60
86.73
83.82
75.67
62.49
46.03
29.06
14.44
4.15
-1.18
-2.19
-0.25
3.38
8.11
14.08
21.88
31.96
44.06
57.14
69.72
80.32
87.97
92.34
93.61
92.16
88.36
82.50
74.90
66.03
56.54
47.09
38.23
30.19
22.93
16.27
10.01
4.10
-1.34
-6.25
-10.78
-15.54
-21.64
-30.37
-42.77
-59.04
-78.26
-98.56
-117.66
-133.48
-144.65
-150.64
-151.52
-147.73
-140.01
-129.54
-118.05
-107.72
-100.53
-97.49
-97.88
-99.18
-97.75
-90.06
-73.98
-49.66
-19.42
12.98
43.47
68.77
86.99
97.67
101.51
99.98
94.81
87.78
80.51
74.32
70.24
68.89
70.37
74.19
79.43
85.01
90.15
94.75
99.24
104.18
109.44
113.60
114.02
107.60
92.12
67.42
35.74
1.09
-32.09
-60.33
-81.88
-96.55
-105.18
-108.78
-108.28
-104.61
-99.11
-93.57
-89.84
-89.14
-91.38
-95.10
-97.96
-97.80
-93.50
-85.46
-75.52
-66.21
-59.95
-58.08
-60.32
-64.66
-67.95
-66.91
-59.42
-45.36
-26.69
-6.67
11.29
24.62
31.90
32.58
26.63
14.43
-2.91
-23.13
-42.79
-57.85
-64.64
-60.89
-46.36
-22.81
6.51
37.62
66.67
90.59
107.65
117.46
120.92
119.58
115.11
108.86
101.67
93.97
85.97
77.78
69.49
61.24
53.24
45.83
39.46
34.48
30.96
28.39
25.75
21.90
16.13
8.72
1.03
-4.82
-6.83
-3.95
3.41
13.46
23.74
32.03
37.02
38.61
37.61
35.22
32.42
29.47
25.50
18.45
5.41
-16.32
-47.77
-86.99
-128.87
-166.01
-190.93
-198.35
-186.70
-158.21
-117.82
-71.54
-25.11
16.72
50.53
74.39
88.05
92.78
90.50
82.61
69.23
49.61
23.68
-6.02
-33.88
-52.51
-55.98
-42.80
-17.26
12.22
36.54
49.69
50.72
42.90
31.30
20.03
10.73
3.06
-3.87
-10.12
-14.58
-15.71
-12.85
-7.02
-0.65
3.46
3.54
-0.36
-6.62
-12.86
-17.23
-19.19
-19.37
-19.03
-19.12
-19.73
-20.08
-19.01
-15.65
-9.80
-2.05
6.55
14.83
21.82
26.83
29.47
29.58
27.30
23.03
17.35
10.93
4.23
-2.50
-9.17
-15.58
-21.24
-25.37
-27.16
-26.12
-22.39
-16.89
-11.00
-6.19
-3.45
-2.96
-3.92
-4.89
-4.25
-0.79
5.86
15.23
26.22
37.54
48.02
56.83
63.33
67.09
67.82
65.52
60.63
53.98
46.59
39.43
33.17
28.17
24.44
21.85
20.11
18.90
17.83
16.58
15.00
13.14
11.26
9.60
8.34
7.45
6.79
6.17
5.50
4.72
3.74
2.46
0.73
-1.43
-3.77
-5.76
-6.83
-6.57
-4.96
-2.43
0.33
2.64
4.02
4.31
3.64
2.27
0.53
-1.26
-2.81
-4.00
-4.80
-5.34
-5.74
-6.01
-5.95
-5.29
-3.81
-1.60
0.94
3.21
4.74
5.38
5.32
4.93
4.52
4.11
3.50
2.48
0.99
-0.75
-2.33
-3.26
-3.11
-1.39
2.47
9.01
18.30
29.41
40.11
47.27
47.85
40.12
24.62
4.04
-17.63
-36.55
-50.30
-58.37
-61.77
-62.12
-60.74
-58.14
-54.11
-48.13
-40.02
-30.21
-19.67
-9.53
-0.60
6.84
12.91
17.57
20.27
20.05
16.00
8.14
-2.27
-12.93
-21.41
-26.15
-27.09
-25.54
-23.46
-22.58
-23.70
-26.61
-30.33
-33.62
-35.35
-34.82
-31.93
-27.10
-21.22
-15.32
-10.33
-6.84
-5.09
-5.08
-6.68
-9.78
-14.23
-19.75
-25.87
-31.86
-36.92
-40.33
-41.70
-41.13
-39.17
-36.60
-34.18
-32.34
-31.11
-30.13
-28.98
-27.32
-25.06
-22.24
-18.92
-15.08
-10.64
-5.59
-0.16
5.15
9.72
12.95
14.52
14.50
13.30
11.50
9.65
8.14
7.11
6.54
6.34
6.41
6.72
7.21
7.79
8.28
8.49
8.20
7.33
5.91
4.06
1.99
-0.09
-1.95
-3.33
-4.01
-3.77
-2.53
-0.41
2.26
5.00
7.32
8.88
9.55
9.55
9.26
9.10
9.38
10.14
11.21
12.31
13.18
13.61
13.53
12.94
11.88
10.54
9.18
8.08
7.42
7.15
6.91
6.17
4.38
1.27
-3.03
-7.92
-12.60
-16.26
-18.36
-18.72
-17.52
-15.06
-11.76
-7.88
-3.69
0.58
4.58
7.91
10.11
10.84
9.99
7.74
4.51
0.83
-2.71
-5.69
-7.86
-9.24
-10.10
-10.85
-11.97
-13.74
-16.25
-19.35
-22.70
-25.96
-28.92
-31.60
-34.19
-37.05
-40.49
-44.68
-49.51
-54.63
-59.51
-63.67
-66.88
-69.11
-70.63
-71.70
-72.43
-72.70
-72.15
-70.39
-67.19
-62.63
-57.09
-51.12
-45.33
-40.32
-36.63
-34.70
-34.65
-36.09
-38.06
-39.20
-38.23
-34.43
-27.86
-19.36
-10.09
-1.16
6.75
13.28
18.27
21.57
23.11
23.12
22.26
21.75
22.91
26.88
34.06
44.02
55.50
66.81
76.31
82.85
86.05
86.28
84.46
81.69
79.10
77.66
78.20
81.29
87.06
95.07
104.19
112.83
119.33
122.42
121.59
117.06
109.62
100.21
89.54
78.02
65.75
52.80
39.38
25.91
12.96
1.13
-9.21
-17.89
-24.93
-30.33
-33.95
-35.50
-34.71
-31.56
-26.52
-20.49
-14.58
-9.71
-6.31
-4.29
-3.17
-2.49
-2.08
-2.11
-2.90
-4.68
-7.31
-10.39
-13.41
-15.89
-17.62
-18.55
-18.77
-18.44
-17.81
-17.17
-16.82
-17.04
-17.94
-19.52
-21.66
-24.16
-26.76
-29.22
-31.28
-32.72
-33.44
-33.40
-32.64
-31.08
-28.60
-25.05
-20.42
-14.94
-9.07
-3.38
1.73
6.14
10.00
13.55
16.89
19.89
22.20
23.48
23.55
22.52
20.77
18.72
16.76
15.05
13.62
12.37
11.16
9.82
8.22
6.27
3.96
1.44
-0.99
-2.99
-4.23
-4.55
-4.00
-2.72
-0.87
1.42
4.08
7.00
9.99
12.82
15.25
17.13
18.42
19.16
19.42
19.22
18.55
17.44
15.97
14.28
12.56
10.96
9.61
8.59
7.92
7.48
7.13
6.63
5.79
4.51
2.78
0.70
-1.56
-3.76
-5.67
-7.01
-7.60
-7.31
-6.20
-4.44
-2.30
-0.05
2.11
4.04
5.70
7.01
7.85
8.13
7.82
6.99
5.80
4.53
3.40
2.59
2.13
1.94
1.85
1.71
1.40
0.93
0.45
0.07
-0.11
-0.17
-0.29
-0.75
-1.72
-3.21
-4.95
-6.58
-7.71
-8.08
-7.65
-6.52
-4.81
-2.62
-0.01
2.90
5.82
8.32
9.86
10.08
8.91
6.67
3.92
1.27
-0.84
-2.31
-3.25
-3.92
-4.49
-5.08
-5.70
-6.41
-7.33
-8.67
-10.53
-12.87
-15.42
-17.78
-19.64
-20.82
-21.36
-21.43
-21.09
-20.24
-18.64
-16.07
-12.50
-8.21
-3.65
0.71
4.60
8.00
10.98
13.67
15.99
17.76
18.74
18.72
17.62
15.55
12.80
9.79
7.01
4.86
3.52
2.90
2.65
2.31
1.51
0.09
-1.93
-4.40
-7.22
-10.32
-13.67
-17.08
-20.22
-22.58
-23.74
-23.47
-21.89
-19.45
-16.70
-14.12
-11.93
-10.10
-8.48
-7.01
-5.78
-5.01
-4.94
-5.64
-6.93
-8.44
-9.74
-10.55
-10.88
-10.91
-10.90
-11.01
-11.20
-11.32
-11.18
-10.73
-10.09
-9.49
-9.16
-9.15
-9.36
-9.52
-9.33
-8.54
-7.10
-5.07
-2.63
-0.03
2.46
4.58
6.14
7.06
7.33
7.04
6.31
5.25
3.95
2.49
0.93
-0.61
-2.00
-3.13
-3.95
-4.47
-4.76
-4.90
-4.96
-4.98
-5.02
-5.12
-5.34
-5.71
-6.19
-6.65
-6.94
-6.93
-6.51
-5.63
-4.29
-2.53
-0.42
1.90
4.27
6.43
8.15
9.22
9.53
9.10
8.12
6.91
5.78
5.01
4.70
4.76
4.97
5.13
5.10
4.85
4.45
3.96
3.40
2.74
1.96
1.04
0.03
-0.99
-1.88
-2.49
-2.63
-2.12
-0.77
1.43
4.32
7.60
10.86
13.71
15.85
17.07
17.33
16.67
15.26
13.36
11.31
9.41
7.86
6.73
5.94
5.30
4.67
3.92
3.08
2.19
1.36
0.65
0.05
-0.53
-1.20
-2.07
-3.18
-4.39
-5.47
-6.14
-6.13
-5.31
-3.72
-1.55
0.91
3.33
5.38
6.83
7.53
7.52
6.91
5.91
4.72
3.46
2.21
1.00
-0.17
-1.27
-2.26
-3.14
-3.92
-4.68
-5.54
-6.62
-7.99
-9.61
-11.26
-12.67
-13.54
-13.65
-12.96
-11.60
-9.80
-7.78
-5.68
-3.50
-1.24
1.01
3.06
4.66
5.58
5.77
5.34
4.53
3.62
2.81
2.20
1.78
1.44
1.10
0.64
0.03
-0.76
-1.73
-2.86
-4.09
-5.41
-6.78
-8.17
-9.53
-10.72
-11.55
-11.80
-11.23
-9.71
-7.21
-3.92
-0.23
3.35
6.34
8.39
9.39
9.46
8.87
7.91
6.82
5.73
4.71
3.78
2.92
2.11
1.27
0.33
-0.71
-1.74
-2.61
-3.16
-3.38
-3.48
-3.77
-4.55
-5.88
-7.52
-8.95
-9.61
-9.10
-7.41
-4.86
-1.96
0.76
2.99
4.61
5.68
6.28
6.48
6.24
5.55
4.43
2.99
1.42
-0.11
-1.44
-2.50
-3.30
-3.89
-4.36
-4.76
-5.18
-5.66
-6.27
-7.05
-7.99
-8.93
-9.61
-9.68
-8.83
-7.00
-4.30
-1.00
2.60
6.30
9.97
13.49
16.68
19.31
21.24
22.44
23.03
23.16
22.97
22.45
21.60
20.48
19.26
18.19
17.49
17.24
17.39
17.84
18.45
19.09
19.59
19.78
19.59
19.12
18.75
18.99
20.30
22.99
27.01
32.16
38.10
44.47
50.98
57.44
63.76
69.95
76.09
82.16
88.01
93.32
97.82
101.47
104.55
107.59
111.04
115.06
119.47
123.83
127.68
130.73
132.78
133.61
132.85
130.03
124.81
117.16
107.51
96.56
85.01
73.26
61.26
48.66
35.10
20.51
5.20
-10.28
-25.42
-39.91
-53.68
-66.61
-78.40
-88.48
-96.27
-101.47
-104.24
-105.12
-104.72
-103.38
-101.02
-97.25
-91.70
-84.29
-75.42
-65.78
-56.18
-47.26
-39.39
-32.68
-27.07
-22.39
-18.52
-15.41
-13.04
-11.42
-10.55
-10.40
-10.85
-11.79
-13.12
-14.91
-17.36
-20.79
-25.44
-31.28
-37.90
-44.60
-50.57
-55.18
-58.16
-59.60
-59.84
-59.36
-58.64
-58.20
-58.49
-59.90
-62.59
-66.35
-70.60
-74.47
-77.03
-77.38
-74.82
-68.84
-59.22
-46.04
-29.81
-11.53
7.55
26.19
43.55
59.37
73.76
86.95
98.87
109.10
117.00
122.11
124.35
124.08
121.79
117.94
112.79
106.46
99.09
90.92
82.31
73.50
64.63
55.77
47.00
38.56
30.84
24.18
18.75
14.51
11.31
8.99
7.46
6.57
6.08
5.59
4.80
3.74
2.97
3.38
5.84
10.62
17.12
23.95
29.40
32.13
31.58
28.18
23.02
17.50
12.93
10.26
10.03
12.25
16.45
21.65
26.67
30.36
32.11
32.00
30.71
29.18
28.00
27.15
25.98
23.65
19.62
14.05
7.73
1.67
-3.32
-7.04
-9.81
-12.24
-14.79
-17.57
-20.30
-22.55
-24.05
-24.86
-25.40
-26.23
-27.77
-30.06
-32.73
-35.11
-36.52
-36.61
-35.49
-33.68
-31.87
-30.71
-30.64
-31.87
-34.58
-38.95
-45.15
-53.36
-63.58
-75.60
-88.98
-103.01
-116.80
-129.45
-140.28
-149.06
-156.18
-162.52
-169.20
-177.06
-186.37
-196.62
-206.76
-215.52
-221.89
-225.41
-226.34
-225.57
-224.38
-224.04
-225.44
-228.65
-232.84
-236.28
-236.78
-232.24
-221.42
-204.45
-182.86
-159.23
-136.30
-116.05
-99.11
-84.70
-71.14
-56.74
-40.56
-22.78
-4.46
12.95
28.28
40.92
50.84
58.37
63.83
67.54
69.99
71.99
74.78
79.70
87.71
98.92
112.44
126.60
139.42
149.17
154.88
156.51
154.88
151.30
146.96
142.50
137.78
132.18
125.09
116.42
106.64
96.44
86.21
75.62
63.85
50.09
34.07
16.37
-1.85
-19.27
-34.87
-48.04
-58.54
-66.31
-71.26
-73.24
-72.14
-68.17
-62.05
-55.10
-49.04
-45.39
-44.87
-47.13
-50.88
-54.63
-57.35
-58.92
-59.82
-60.52
-61.00
-60.61
-58.50
-54.25
-48.19
-41.24
-34.50
-28.75
-24.25
-20.91
-18.46
-16.64
-15.27
-14.07
-12.64
-10.52
-7.34
-2.95
2.42
8.24
13.82
18.57
22.05
24.03
24.41
23.12
20.18
15.76
10.38
4.91
0.39
-2.35
-3.19
-2.80
-2.50
-3.66
-7.18
-13.10
-20.71
-28.95
-36.74
-43.33
-48.15
-50.80
-50.89
-48.18
-42.67
-34.70
-24.95
-14.16
-2.99
8.16
19.12
29.83
40.07
49.37
56.95
61.95
63.83
62.62
59.09
54.39
49.65
45.46
41.78
38.08
33.83
28.82
23.10
16.93
10.41
3.52
-3.74
-11.04
-17.77
-23.21
-26.88
-28.74
-29.06
-28.13
-26.09
-22.92
-18.67
-13.58
-8.16
-2.92
1.76
5.76
9.09
11.71
13.49
14.31
14.26
13.69
13.22
13.41
14.73
17.35
21.22
26.04
31.30
36.32
40.47
43.34
44.93
45.70
46.37
47.68
50.12
53.82
58.54
63.79
68.93
73.33
76.48
78.11
78.14
76.66
73.57
68.51
60.86
50.07
36.12
19.90
3.13
-12.05
-23.76
-31.00
-33.89
-33.49
-31.25
-28.46
-25.90
-23.81
-22.04
-20.33
-18.41
-16.01
-12.70
-8.01
-1.46
7.09
17.35
28.61
40.06
51.08
61.45
71.27
80.60
89.17
96.21
100.66
101.59
98.72
92.68
84.93
77.33
71.51
68.40
67.97
69.40
71.45
72.88
72.88
71.10
67.72
63.33
58.73
54.81
52.44
52.32
54.87
60.00
67.04
74.77
81.73
86.54
88.37
87.05
83.04
77.07
69.75
61.39
52.08
42.02
31.84
22.64
15.68
11.95
11.64
14.03
17.61
20.57
21.23
18.50
12.04
2.22
-9.88
-22.75
-34.73
-44.36
-50.69
-53.58
-53.61
-51.86
-49.46
-47.25
-45.59
-44.49
-43.84
-43.64
-44.10
-45.52
-48.12
-51.83
-56.28
-60.90
-65.20
-68.98
-72.44
-76.09
-80.49
-85.90
-92.25
-99.15
-106.27
-113.52
-121.17
-129.67
-139.34
-150.07
-161.29
-172.13
-181.62
-188.98
-193.76
-195.81
-195.31
-192.52
-187.59
-180.29
-170.00
-155.91
-137.54
-115.30
-90.73
-66.15
-44.07
-26.31
-13.50
-5.14
0.12
3.72
6.75
9.79
13.02
16.41
19.95
23.60
27.16
30.20
32.06
32.02
29.57
24.60
17.56
9.43
1.57
-4.49
-7.44
-6.46
-1.43
7.06
17.88
29.71
41.40
52.16
61.56
69.40
75.51
79.77
82.11
82.69
81.79
79.81
77.11
74.03
70.91
68.19
66.32
65.62
66.08
67.30
68.63
69.50
69.58
68.91
67.68
66.06
64.06
61.53
58.46
55.08
51.85
49.38
48.09
48.14
49.48
52.10
56.17
62.05
69.93
79.54
89.91
99.69
107.50
112.65
115.24
116.09
116.11
115.82
115.00
112.87
108.49
101.25
91.19
78.90
65.24
50.94
36.28
21.20
5.42
-11.17
-28.31
-45.39
-61.73
-76.82
-90.60
-103.42
-115.87
-128.51
-141.67
-155.49
-169.93
-184.82
-199.78
-213.96
-225.99
-234.05
-236.23
-231.01
-217.89
-197.50
-171.61
-142.67
-113.29
-85.77
-61.74
-42.12
-27.08
-16.30
-9.00
-4.13
-0.56
2.83
6.84
11.88
17.83
24.12
29.98
34.71
38.01
40.07
41.49
42.89
44.60
46.42
47.66
47.39
44.74
39.22
30.78
19.90
7.32
-6.05
-19.38
-31.95
-43.23
-52.71
-59.85
-64.12
-65.11
-62.74
-57.45
-50.17
-42.09
-34.32
-27.66
-22.46
-18.74
-16.24
-14.66
-13.72
-13.20
-13.03
-13.22
-13.93
-15.33
-17.52
-20.46
-23.92
-27.51
-30.81
-33.42
-35.04
-35.58
-35.12
-33.82
-31.77
-28.89
-24.86
-19.24
-11.70
-2.27
8.53
19.79
30.47
39.74
47.23
53.09
57.82
62.04
66.17
70.39
74.61
78.67
82.43
85.79
88.59
90.52
91.07
89.80
86.48
81.42
75.34
69.28
64.19
60.60
58.44
57.09
55.66
53.32
49.69
44.97
39.84
35.16
31.54
29.11
27.47
25.91
23.70
20.35
15.71
9.96
3.54
-2.90
-8.60
-12.83
-15.02
-15.01
-13.00
-9.55
-5.33
-0.94
3.23
6.87
9.72
11.52
12.00
11.02
8.69
5.42
1.83
-1.45
-3.90
-5.30
-5.68
-5.25
-4.31
-3.06
-1.54
0.34
2.71
5.59
8.70
11.47
13.15
13.10
11.11
7.49
3.07
-1.16
-4.33
-5.98
-6.09
-4.98
-3.05
-0.73
1.61
3.55
4.68
4.62
3.18
0.52
-2.93
-6.57
-9.86
-12.48
-14.40
-15.80
-16.91
-17.92
-18.89
-19.75
-20.43
-20.92
-21.32
-21.94
-23.16
-25.27
-28.37
-32.16
-36.02
-39.11
-40.68
-40.23
-37.66
-33.18
-27.20
-20.24
-12.80
-5.39
1.51
7.46
12.20
15.67
18.04
19.69
21.04
22.48
24.24
26.39
28.86
31.45
33.82
35.59
36.37
35.87
34.01
31.04
27.33
23.28
19.04
14.48
9.36
3.55
-2.61
-8.36
-12.64
-14.64
-14.01
-11.08
-6.56
-1.30
4.10
9.35
14.36
19.05
23.24
26.72
29.32
30.99
31.88
32.23
32.27
32.11
31.77
31.12
30.00
28.21
25.64
22.31
18.39
14.15
9.87
5.73
1.71
-2.37
-6.76
-11.65
-17.00
-22.51
-27.63
-31.71
-34.18
-34.73
-33.30
-30.13
-25.62
-20.23
-14.45
-8.76
-3.54
1.00
4.91
8.54
12.34
16.68
21.55
26.51
30.89
34.00
35.52
35.51
34.41
32.76
31.08
29.71
28.77
28.16
27.57
26.62
24.89
22.11
18.28
13.62
8.46
3.15
-2.03
-6.82
-10.93
-13.97
-15.58
-15.57
-13.99
-11.10
-7.22
-2.56
2.82
8.86
15.38
21.97
27.99
32.78
35.89
37.21
37.01
35.80
34.08
32.18
30.24
28.23
26.11
23.87
21.56
19.20
16.79
14.39
12.15
10.34
9.18
8.59
8.03
6.53
2.97
-3.44
-12.77
-24.31
-36.67
-48.17
-57.22
-62.57
-63.52
-59.99
-52.51
-42.11
-30.15
-17.99
-6.69
3.28
11.97
19.79
27.09
33.98
40.19
45.27
48.84
50.89
51.74
51.98
52.18
52.63
53.27
53.82
53.86
53.11
51.43
48.85
45.53
41.66
37.46
33.05
28.47
23.64
18.48
12.91
6.94
0.70
-5.53
-11.34
-16.27
-19.74
-21.33
-20.82
-18.34
-14.29
-9.31
-3.96
1.30
6.23
10.68
14.53
17.66
20.03
21.63
22.53
22.69
21.90
19.74
15.76
9.64
1.40
-8.54
-19.51
-30.66
-41.11
-50.04
-56.61
-60.20
-60.49
-57.62
-52.27
-45.49
-38.42
-32.04
-26.90
-23.08
-20.15
-17.39
-13.94
-9.11
-2.55
5.67
15.09
25.12
35.20
44.96
54.13
62.40
69.31
74.23
76.64
76.36
73.63
69.05
63.28
56.81
49.88
42.54
34.84
26.97
19.21
11.79
4.82
-1.82
-8.31
-14.71
-20.89
-26.53
-31.27
-34.87
-37.42
-39.24
-40.82
-42.50
-44.33
-45.99
-46.96
-46.68
-44.82
-41.36
-36.56
-30.96
-25.20
-20.06
-16.29
-14.53
-15.12
-18.03
-22.84
-28.81
-35.18
-41.21
-46.27
-49.66
-50.80
-49.18
-44.74
-37.90
-29.51
-20.51
-11.73
-3.61
3.67
10.02
15.28
19.25
21.83
23.12
23.44
23.12
22.44
21.52
20.43
19.28
18.24
17.44
16.85
16.35
15.76
15.10
14.52
14.24
14.28
14.37
14.01
12.73
10.37
7.18
3.80
0.96
-0.69
-0.76
0.81
3.76
7.53
11.28
14.18
15.65
15.60
14.45
12.93
11.71
11.08
10.93
10.83
10.36
9.22
7.25
4.34
0.32
-4.98
-11.61
-19.32
-27.56
-35.49
-42.23
-46.84
-48.49
-46.51
-40.64
-31.14
-18.88
-5.25
8.24
20.29
30.08
37.32
42.10
44.78
45.84
45.92
45.77
46.15
47.67
50.52
54.47
58.95
63.23
66.69
68.85
69.47
68.46
65.88
61.85
56.55
50.16
42.87
34.86
26.38
17.91
10.14
3.94
0.14
-0.63
1.84
7.32
15.19
24.48
34.04
42.57
48.80
51.75
50.94
46.62
39.69
31.46
23.24
15.95
9.98
5.22
1.27
-2.30
-5.92
-10.01
-15.05
-21.59
-30.15
-41.00
-54.03
-68.66
-84.12
-99.58
-114.47
-128.34
-140.79
-151.12
-158.38
-161.40
-159.22
-151.41
-138.31
-121.04
-101.22
-80.58
-60.62
-42.45
-26.75
-13.90
-4.02
2.98
7.46
10.04
11.53
12.67
13.90
15.26
16.38
16.80
16.18
14.46
11.77
8.34
4.35
-0.09
-4.79
-9.41
-13.46
-16.55
-18.58
-19.92
-21.31
-23.53
-27.02
-31.50
-35.98
-39.08
-39.56
-36.79
-30.97
-23.00
-14.05
-5.12
3.25
10.96
18.11
24.79
31.00
36.60
41.51
45.67
49.12
51.79
53.50
53.92
52.63
49.25
43.56
35.58
25.62
14.37
2.85
-7.75
-16.36
-22.34
-25.72
-27.14
-27.53
-27.59
-27.48
-26.69
-24.33
-19.65
-12.48
-3.44
6.24
15.15
22.32
27.54
31.44
35.14
39.70
45.62
52.63
59.83
66.19
70.98
74.05
75.78
76.74
77.33
77.55
77.14
75.84
73.71
71.15
68.75
66.90
65.61
64.54
63.23
61.41
59.09
56.43
53.56
50.42
46.89
43.01
39.13
35.87
33.72
32.70
32.14
30.91
27.86
22.34
14.55
5.38
-3.82
-11.95
-18.52
-23.91
-29.24
-35.88
-44.94
-56.81
-71.09
-86.78
-102.87
-118.61
-133.82
-148.69
-163.55
-178.56
-193.49
-207.75
-220.34
-230.03
-235.56
-235.90
-230.51
-219.51
-203.62
-183.91
-161.47
-137.20
-111.78
-85.88
-60.27
-35.88
-13.53
6.27
23.54
38.75
52.52
65.36
77.42
88.41
97.83
105.14
109.97
112.25
112.25
110.52
107.74
104.51
101.19
97.69
93.63
88.53
82.07
74.21
65.20
55.37
45.00
34.30
23.45
12.82
2.87
-5.97
-13.54
-20.01
-25.68
-30.77
-35.10
-38.25
-39.79
-39.64
-38.21
-36.18
-34.13
-32.27
-30.42
-28.35
-26.07
-24.04
-22.97
-23.40
-25.43
-28.64
-32.27
-35.60
-38.19
-39.99
-41.18
-42.04
-42.74
-43.20
-43.15
-42.10
-39.42
-34.58
-27.22
-17.43
-5.69
7.12
19.98
31.88
42.15
50.50
57.16
62.72
67.97
73.66
80.24
87.86
96.28
105.04
113.63
121.53
128.33
133.71
137.46
139.49
139.83
138.54
135.68
131.24
125.18
117.48
108.24
97.62
85.87
73.19
59.77
45.79
31.50
17.24
3.48
-9.24
-20.36
-29.39
-35.99
-39.98
-41.37
-40.27
-36.80
-31.12
-23.58
-14.87
-5.96
2.14
8.85
14.38
19.74
26.29
34.90
45.32
56.10
65.10
70.50
71.54
68.69
63.06
55.62
46.62
35.61
22.14
6.47
-10.20
-26.04
-39.52
-49.94
-57.51
-62.77
-65.85
-66.20
-62.91
-55.61
-44.96
-32.76
-21.29
-12.37
-6.85
-4.56
-4.80
-6.81
-9.93
-13.44
-16.30
-17.26
-15.21
-9.76
-1.53
8.05
17.21
24.53
29.26
31.33
31.03
28.75
24.79
19.38
12.69
4.80
-4.30
-14.65
-26.19
-38.45
-50.45
-60.88
-68.50
-72.68
-73.74
-72.94
-71.91
-72.03
-73.81
-76.68
-79.24
-79.81
-77.23
-71.25
-62.64
-52.78
-43.07
-34.44
-27.22
-21.46
-17.33
-15.36
-16.33
-20.77
-28.65
-39.17
-51.05
-63.03
-74.36
-84.82
-94.68
-104.26
-113.83
-123.45
-133.03
-142.31
-150.69
-157.17
-160.41
-159.08
-152.42
-140.58
-124.81
-107.01
-89.13
-72.59
-57.92
-44.86
-32.69
-20.59
-7.89
5.85
20.86
37.17
54.51
72.18
89.18
104.36
116.79
126.12
132.70
137.48
141.72
146.57
152.79
160.62
169.70
179.26
188.30
195.78
200.84
202.83
201.36
196.41
188.43
178.40
167.78
158.24
151.15
147.12
145.85
146.47
147.95
149.47
150.42
149.96
146.83
139.27
125.63
105.15
78.33
46.85
12.75
-22.39
-57.76
-93.07
-127.80
-160.78
-190.32
-214.95
-234.13
-248.61
-259.99
-269.77
-278.61
-285.92
-290.38
-290.67
-286.27
-277.71
-266.30
-253.57
-240.62
-228.02
-215.84
-204.05
-192.66
-181.81
-171.42
-160.97
-149.42
-135.50
-118.23
-97.50
-74.18
-49.89
-26.44
-5.22
13.01
28.16
40.50
50.39
58.21
64.29
68.96
72.50
75.11
76.93
78.00
78.45
78.53
78.67
79.25
80.45
82.05
83.30
83.15
80.38
73.95
63.28
48.43
30.17
9.88
-10.69
-29.68
-45.52
-57.20
-64.37
-67.35
-66.83
-63.71
-58.89
-53.20
-47.45
-42.36
-38.41
-35.68
-33.81
-32.14
-30.06
-27.37
-24.45
-22.13
-21.29
-22.58
-26.08
-31.38
-37.68
-44.11
-49.87
-54.35
-57.12
-57.99
-57.07
-54.76
-51.70
-48.70
-46.43
-45.30
-45.30
-46.04
-46.84
-46.99
-46.01
-43.70
-40.18
-35.70
-30.41
-24.23
-16.88
-7.98
2.64
14.83
28.06
41.52
54.39
66.01
76.00
84.23
90.80
95.89
99.79
102.73
104.89
106.27
106.78
106.32
104.91
102.73
100.16
97.62
95.31
93.06
90.34
86.39
80.61
72.78
63.26
52.77
42.23
32.46
24.04
17.21
11.95
8.07
5.27
3.26
1.82
0.88
0.51
0.89
2.18
4.40
7.33
10.44
12.96
14.01
12.90
9.35
3.82
-2.59
-8.40
-12.26
-13.46
-12.15
-9.11
-5.29
-1.38
2.44
6.26
9.99
13.08
14.52
13.15
8.17
-0.41
-11.84
-24.78
-37.76
-49.38
-58.36
-63.66
-64.40
-60.19
-51.42
-39.34
-25.88
-13.03
-2.26
5.86
11.69
16.12
20.06
24.06
28.30
32.63
36.81
40.48
43.07
43.73
41.41
35.24
24.93
11.13
-4.47
-19.49
-31.45
-38.32
-39.02
-33.52
-22.69
-7.92
9.29
27.67
46.34
64.87
83.14
101.21
119.09
136.68
153.72
169.90
184.93
198.48
210.07
218.85
223.53
222.59
214.68
199.21
176.77
149.11
118.77
88.42
60.13
35.02
13.11
-6.33
-24.37
-42.07
-60.08
-78.51
-96.80
-113.78
-127.95
-137.84
-142.58
-142.11
-137.34
-129.85
-121.40
-113.49
-107.04
-102.40
-99.43
-97.70
-96.56
-95.27
-93.18
-89.81
-85.05
-79.19
-72.69
-66.04
-59.55
-53.31
-47.35
-41.70
-36.49
-31.85
-27.83
-24.34
-21.21
-18.32
-15.66
-13.29
-11.25
-9.42
-7.50
-5.13
-2.06
1.66
5.71
9.56
12.71
14.87
16.04
16.50
16.56
16.38
15.92
14.92
13.12
10.45
7.16
3.76
0.74
-1.64
-3.50
-5.23
-7.20
-9.55
-12.12
-14.53
-16.44
-17.63
-17.95
-17.28
-15.43
-12.20
-7.60
-1.80
4.75
11.58
18.25
24.47
29.96
34.44
37.65
39.42
39.83
39.17
37.80
36.04
34.01
31.62
28.70
25.09
20.68
15.49
9.71
3.65
-2.29
-7.75
-12.55
-16.80
-20.84
-25.05
-29.59
-34.30
-38.59
-41.68
-42.72
-41.05
-36.32
-28.54
-18.08
-5.64
7.84
21.37
33.99
44.99
53.96
60.79
65.51
68.26
69.14
68.28
65.85
62.11
57.40
52.05
46.39
40.72
35.28
30.35
26.13
22.72
20.01
17.69
15.36
12.68
9.44
5.58
1.05
-4.27
-10.47
-17.40
-24.50
-30.81
-35.15
-36.71
-35.36
-31.75
-27.00
-22.16
-17.81
-13.90
-10.08
-6.00
-1.71
2.36
5.61
7.57
8.06
7.21
5.28
2.46
-1.22
-5.81
-11.39
-17.85
-24.94
-32.31
-39.61
-46.56
-53.02
-58.92
-64.18
-68.63
-71.81
-73.07
-71.60
-66.67
-57.97
-45.70
-30.68
-14.11
2.67
18.52
32.59
44.40
53.70
60.41
64.59
66.38
66.05
63.95
60.48
56.09
51.28
46.63
42.65
39.67
37.66
36.23
34.78
32.73
29.72
25.71
20.86
15.32
9.19
2.59
-4.15
-10.40
-15.27
-17.93
-18.00
-15.69
-11.72
-7.00
-2.24
2.28
6.64
11.04
15.57
20.06
24.16
27.42
29.40
29.79
28.45
25.40
20.84
15.04
8.29
0.86
-6.99
-14.94
-22.59
-29.56
-35.59
-40.71
-45.15
-49.16
-52.68
-55.14
-55.67
-53.35
-47.71
-38.93
-27.79
-15.37
-2.72
9.41
20.59
30.52
38.97
45.68
50.41
53.13
54.05
53.62
52.44
51.10
50.04
49.43
49.22
49.15
48.86
48.04
46.47
44.05
40.69
36.17
30.10
22.11
12.09
0.49
-11.53
-22.36
-30.39
-34.59
-34.76
-31.48
-25.78
-18.66
-10.86
-2.87
4.95
12.29
18.87
24.47
28.97
32.22
33.88
33.39
30.17
23.88
14.72
3.45
-8.88
-21.28
-33.17
-44.33
-54.72
-64.09
-71.72
-76.53
-77.43
-73.87
-66.12
-55.29
-42.95
-30.57
-19.19
-9.23
-0.69
6.56
12.65
17.72
22.01
25.90
29.81
34.01
38.56
43.24
47.88
52.45
57.07
61.83
66.55
70.81
73.98
75.52
74.94
71.90
66.01
56.92
44.56
29.45
12.91
-3.27
-17.26
-27.86
-34.83
-38.72
-40.52
-41.08
-40.90
-40.08
-38.54
-36.21
-33.06
-29.12
-24.46
-19.24
-13.76
-8.52
-4.15
-1.28
-0.45
-1.93
-5.67
-11.29
-18.12
-25.36
-32.31
-38.54
-44.00
-48.93
-53.66
-58.30
-62.62
-66.02
-67.68
-66.79
-62.78
-55.52
-45.38
-33.18
-20.06
-7.15
4.61
14.70
23.02
29.78
35.33
39.97
43.96
47.50
50.90
54.57
58.97
64.50
71.23
78.77
86.20
92.30
96.01
96.88
95.30
92.42
89.53
87.53
86.52
85.98
85.21
83.93
82.42
81.24
80.62
80.22
79.24
77.18
74.41
72.31
72.64
76.60
83.88
92.66
100.28
104.38
103.84
99.06
91.51
82.95
74.68
67.16
60.14
52.96
44.98
35.90
25.82
15.28
5.04
-4.05
-11.27
-16.28
-19.29
-21.43
-24.75
-31.88
-45.19
-65.63
-91.85
-120.26
-146.12
-165.37
-176.25
-179.84
-179.14
-177.20
-175.44
-173.10
-168.10
-158.65
-144.58
-127.53
-110.02
-93.99
-79.78
-66.20
-51.46
-34.43
-15.48
3.61
20.57
33.82
43.28
50.28
56.64
63.45
70.19
74.79
74.62
67.88
54.60
36.66
16.78
-2.66
-20.42
-36.32
-50.35
-62.01
-70.20
-73.82
-72.64
-67.75
-61.13
-54.76
-49.76
-46.00
-42.57
-38.58
-33.80
-28.80
-24.64
-22.30
-22.29
-24.57
-28.73
-34.25
-40.74
-47.99
-55.91
-64.27
-72.58
-80.06
-85.83
-89.23
-90.07
-88.78
-86.21
-83.38
-81.09
-79.70
-79.12
-78.92
-78.61
-77.79
-76.38
-74.62
-73.06
-72.56
-74.05
-78.34
-85.75
-95.68
-106.42
-115.35
-119.54
-116.61
-105.62
-87.33
-64.01
-38.60
-13.83
8.40
27.14
42.23
53.85
62.34
68.10
71.55
73.18
73.42
72.57
70.84
68.47
65.81
63.37
61.67
61.02
61.35
62.24
63.06
63.31
62.81
61.83
61.02
61.08
62.53
65.43
69.39
73.71
77.75
81.26
84.40
87.71
91.71
96.63
102.09
107.18
110.54
110.75
106.47
96.69
81.00
59.76
34.31
6.88
-19.75
-42.93
-60.83
-72.94
-80.06
-83.72
-85.42
-85.98
-85.27
-82.65
-77.55
-70.05
-61.08
-52.07
-44.30
-38.43
-34.34
-31.49
-29.38
-27.93
-27.42
-28.02
-29.40
-30.53
-30.00
-26.65
-20.23
-11.65
-2.68
4.77
9.31
10.62
9.30
6.45
3.19
0.24
-2.14
-4.13
-6.16
-8.73
-12.25
-16.90
-22.58
-28.89
-35.26
-41.25
-46.68
-51.69
-56.58
-61.45
-65.95
-69.28
-70.50
-69.04
-65.06
-59.45
-53.46
-48.13
-43.83
-40.21
-36.47
-31.84
-25.98
-19.04
-11.53
-3.95
3.44
10.64
17.82
25.06
32.23
39.00
44.81
49.13
51.61
52.28
51.58
50.28
49.27
49.25
50.58
53.15
56.57
60.30
63.85
66.95
69.50
71.56
73.21
74.54
75.60
76.41
76.86
76.78
75.95
74.25
71.81
68.91
65.98
63.32
60.97
58.66
55.95
52.32
47.32
40.49
31.54
20.30
6.97
-7.77
-22.76
-36.71
-48.50
-57.54
-63.78
-67.60
-69.56
-70.32
-70.55
-71.00
-72.34
-74.93
-78.71
-83.07
-87.14
-90.12
-91.54
-91.39
-89.98
-87.70
-84.82
-81.42
-77.54
-73.26
-68.84
-64.63
-61.01
-58.25
-56.37
-55.14
-54.21
-53.28
-52.25
-51.30
-50.73
-50.82
-51.57
-52.66
-53.48
-53.26
-51.35
-47.31
-41.11
-33.09
-23.97
-14.72
-6.36
0.32
5.01
7.97
9.98
11.98
14.85
19.10
24.85
31.92
40.00
48.64
57.35
65.51
72.51
77.81
81.21
82.79
82.99
82.39
81.52
80.77
80.33
80.20
80.20
80.01
79.21
77.47
74.66
71.04
67.14
63.67
61.09
59.49
58.50
57.38
55.39
52.06
47.39
41.97
36.75
32.79
30.88
31.21
33.33
36.27
38.86
39.98
38.74
34.41
26.51
14.83
-0.28
-17.80
-36.03
-53.06
-67.39
-78.33
-86.06
-91.20
-94.12
-94.58
-91.78
-84.93
-74.02
-60.21
-45.70
-33.01
-24.11
-19.83
-19.66
-22.30
-26.24
-30.36
-34.08
-37.20
-39.56
-40.85
-40.68
-38.75
-35.11
-30.23
-24.84
-19.63
-15.03
-11.13
-7.79
-4.88
-2.32
-0.11
1.78
3.53
5.53
8.25
12.10
17.26
23.60
30.60
37.50
43.40
47.51
49.41
49.22
47.45
44.78
41.78
38.63
35.30
31.75
28.21
25.35
23.94
24.62
27.53
32.19
37.78
43.41
48.37
52.20
54.56
55.10
53.45
49.33
42.74
34.18
24.61
15.27
7.30
1.38
-2.53
-4.99
-6.82
-8.55
-10.18
-11.14
-10.67
-8.27
-4.07
1.15
6.20
10.01
12.00
12.26
11.41
10.30
9.68
10.04
11.49
13.89
16.93
20.23
23.49
26.49
29.24
31.86
34.54
37.43
40.54
43.72
46.73
49.21
50.70
50.65
48.60
44.42
38.64
32.43
27.34
24.71
25.05
27.95
32.42
37.63
43.53
51.03
61.42
75.52
93.07
112.62
132.16
149.92
165.09
177.93
189.25
199.74
209.33
216.96
220.95
219.58
211.91
198.22
180.08
159.84
139.83
121.50
104.99
89.22
72.51
53.37
31.07
5.84
-21.29
-48.90
-75.52
-100.00
-121.70
-140.51
-156.90
-171.57
-185.04
-197.26
-207.48
-214.53
-217.40
-215.67
-209.75
-200.60
-189.29
-176.49
-162.36
-146.72
-129.59
-111.63
-94.31
-79.61
-69.21
-63.77
-62.46
-63.11
-63.07
-60.29
-54.20
-46.06
-38.52
-34.61
-36.51
-44.67
-57.49
-71.90
-84.56
-93.24
-97.78
-100.03
-102.78
-108.26
-116.94
-127.46
-137.62
-145.66
-150.98
-153.83
-154.26
-151.21
-142.55
-126.15
-101.37
-69.93
-35.55
-2.69
25.18
46.58
62.08
73.52
82.94
91.81
100.65
109.14
116.38
121.37
123.52
123.04
121.08
119.40
119.62
122.44
127.10
131.46
132.59
127.61
114.57
93.10
64.59
32.11
-0.29
-28.49
-49.55
-62.51
-68.60
-70.46
-70.96
-71.87
-73.34
-74.20
-72.92
-68.65
-61.70
-53.33
-45.14
-38.24
-32.96
-28.98
-25.78
-23.08
-20.98
-19.77
-19.63
-20.27
-21.08
-21.30
-20.45
-18.48
-15.76
-12.87
-10.26
-8.05
-6.07
-3.98
-1.49
1.59
5.23
9.37
14.02
19.34
25.70
33.63
43.60
55.77
69.79
84.77
99.40
112.35
122.59
129.70
133.94
136.12
137.24
138.22
139.60
141.54
143.93
146.50
149.04
151.37
153.25
154.26
153.81
151.23
146.02
138.20
128.24
116.87
104.68
91.83
78.04
62.84
45.89
27.10
6.61
-15.39
-38.58
-62.48
-86.27
-108.83
-129.02
-146.05
-159.80
-170.56
-178.73
-184.41
-187.39
-187.40
-184.44
-179.05
-172.06
-164.28
-156.07
-147.41
-138.01
-127.78
-117.02
-106.45
-96.92
-89.12
-83.29
-79.25
-76.54
-74.61
-73.10
-71.83
-70.70
-69.63
-68.51
-67.24
-65.80
-64.14
-62.02
-58.84
-53.72
-45.80
-34.62
-20.49
-4.46
12.00
27.33
40.31
50.24
56.92
60.64
62.12
62.35
62.34
62.76
63.65
64.43
64.17
62.13
58.11
52.54
46.20
39.83
33.72
27.71
21.28
13.97
5.50
-4.13
-14.80
-26.28
-38.26
-50.09
-60.83
-69.32
-74.72
-76.95
-76.69
-75.03
-72.70
-69.40
-63.76
-53.99
-38.84
-18.48
5.34
29.81
52.08
70.14
83.12
91.22
95.15
95.74
93.72
89.70
84.20
77.70
70.63
63.24
55.65
47.82
39.59
30.74
21.10
10.75
0.05
-10.21
-18.99
-25.28
-28.34
-27.85
-23.89
-16.75
-6.86
5.32
19.22
34.11
49.21
63.69
76.88
88.20
97.17
103.34
106.50
106.76
104.74
101.46
98.06
95.46
94.07
93.81
94.27
94.91
95.24
94.75
93.07
89.99
85.53
79.89
73.18
65.14
55.05
41.92
25.12
4.84
-17.73
-40.73
-62.25
-80.99
-96.44
-108.80
-118.55
-126.12
-131.70
-135.30
-136.72
-135.63
-131.63
-124.41
-114.02
-101.08
-86.74
-72.38
-59.20
-47.90
-38.58
-31.09
-25.30
-21.35
-19.62
-20.35
-23.41
-28.09
-33.33
-37.95
-41.07
-42.21
-41.34
-38.68
-34.60
-29.47
-23.68
-17.50
-11.06
-4.21
3.48
12.47
23.08
35.21
48.29
61.44
73.73
84.57
93.73
101.44
108.17
114.51
120.94
127.70
134.74
141.73
148.21
153.71
157.86
160.44
161.23
159.85
155.77
148.40
137.33
122.51
104.28
83.23
60.00
35.19
9.45
-16.48
-41.73
-65.55
-87.51
-107.59
-125.83
-141.89
-154.61
-162.17
-162.75
-155.52
-141.37
-122.98
-104.01
-87.91
-76.81
-71.02
-69.20
-69.24
-69.11
-67.57
-64.40
-60.20
-56.03
-52.93
-51.60
-52.26
-54.66
-58.17
-61.88
-64.83
-66.07
-64.84
-60.77
-53.86
-44.59
-33.70
-22.12
-10.73
-0.23
8.95
16.68
23.15
28.76
34.19
40.18
47.44
56.38
66.99
78.72
90.58
101.38
109.97
115.47
117.45
116.08
112.09
106.76
101.56
97.80
96.15
96.35
97.28
97.44
95.60
91.23
84.70
76.86
68.61
60.47
52.50
44.53
36.48
28.67
21.77
16.59
13.73
13.30
14.62
16.20
16.03
11.94
2.34
-13.12
-33.23
-55.32
-75.98
-92.14
-101.97
-105.33
-103.57
-98.77
-92.89
-87.16
-81.91
-76.78
-71.09
-64.28
-56.04
-46.51
-36.29
-26.42
-18.29
-13.30
-12.50
-16.24
-24.12
-35.19
-48.48
-63.28
-79.30
-96.34
-113.95
-131.21
-146.72
-159.01
-166.84
-169.50
-166.79
-158.93
-146.60
-130.96
-113.66
-96.51
-81.08
-68.03
-57.01
-46.84
-36.21
-24.31
-11.29
1.95
14.15
24.27
31.82
36.87
39.87
41.42
42.07
42.25
42.26
42.20
42.04
41.65
40.98
40.15
39.58
39.89
41.70
45.32
50.43
56.10
60.92
63.49
62.90
59.00
52.53
44.77
37.18
30.92
26.58
23.98
22.22
19.94
15.76
8.79
-0.99
-12.64
-24.62
-35.26
-43.43
-48.72
-51.44
-52.30
-52.01
-51.13
-50.00
-48.78
-47.46
-45.81
-43.43
-39.78
-34.54
-27.75
-19.89
-11.71
-3.97
2.72
8.03
11.80
14.01
14.77
14.38
13.30
12.08
11.16
10.76
10.83
11.13
11.46
11.68
11.85
12.12
12.69
13.74
15.40
17.75
20.77
24.39
28.55
33.28
38.73
45.04
52.25
60.05
67.88
75.07
81.13
85.98
89.99
93.83
98.17
103.41
109.50
115.85
121.44
125.01
125.26
121.05
111.59
96.62
76.64
53.05
28.16
4.88
-14.00
-26.68
-33.20
-35.51
-36.85
-40.30
-47.49
-57.80
-68.77
-77.44
-81.79
-81.62
-78.42
-74.41
-71.36
-69.95
-69.70
-69.56
-68.56
-66.28
-62.83
-58.63
-54.11
-49.62
-45.42
-41.75
-38.96
-37.44
-37.59
-39.72
-43.92
-50.09
-57.83
-66.59
-75.61
-84.08
-91.18
-96.29
-99.14
-99.81
-98.67
-95.98
-91.63
-85.03
-75.33
-62.02
-45.40
-26.75
-8.03
8.81
22.50
32.63
39.61
44.11
46.68
47.56
46.96
45.25
43.13
41.50
41.04
41.98
44.02
46.49
48.71
50.31
51.34
52.08
52.87
53.86
54.87
55.54
55.39
54.08
51.51
47.84
43.44
38.74
34.14
29.89
26.07
22.69
19.65
16.92
14.50
12.38
10.55
8.89
7.32
5.80
4.39
3.34
2.93
3.43
5.06
7.85
11.63
16.05
20.53
24.35
26.77
27.22
25.42
21.42
15.56
8.34
0.32
-7.92
-15.82
-22.92
-28.88
-33.58
-37.09
-39.62
-41.39
-42.53
-43.10
-43.07
-42.36
-40.91
-38.63
-35.48
-31.53
-27.02
-22.31
-17.79
-13.67
-9.81
-5.77
-1.09
4.50
10.90
17.70
24.34
30.38
35.61
40.02
43.64
46.48
48.48
49.60
49.90
49.51
48.64
47.46
46.01
44.26
42.12
39.55
36.48
32.83
28.49
23.31
17.24
10.46
3.32
-3.65
-9.95
-15.24
-19.32
-22.10
-23.45
-23.15
-21.02
-17.04
-11.45
-4.80
2.20
8.98
15.17
20.59
25.20
28.98
31.84
33.71
34.57
34.38
33.13
30.78
27.26
22.55
16.71
9.90
2.26
-6.10
-15.17
-25.06
-35.85
-47.59
-60.17
-73.32
-86.52
-99.05
-109.95
-118.19
-122.82
-123.27
-119.40
-111.61
-100.64
-87.29
-72.34
-56.36
-39.93
-23.73
-8.55
4.79
15.73
24.16
30.43
35.16
38.86
41.73
43.67
44.52
44.29
43.33
42.17
41.30
40.88
40.67
40.18
38.98
36.88
33.98
30.54
26.77
22.68
18.03
12.56
6.13
-1.06
-8.49
-15.42
-21.07
-24.85
-26.44
-25.85
-23.32
-19.26
-14.13
-8.43
-2.63
2.82
7.62
11.63
14.99
17.98
20.90
23.86
26.67
28.88
29.99
29.75
28.27
25.99
23.49
21.16
19.12
17.13
14.77
11.56
7.16
1.48
-5.31
-12.73
-20.10
-26.69
-31.85
-35.10
-36.19
-35.03
-31.68
-26.40
-19.60
-11.85
-3.78
4.09
11.49
18.37
24.80
30.80
36.18
40.60
43.70
45.29
45.51
44.71
43.38
41.98
40.83
40.04
39.62
39.51
39.63
39.92
40.30
40.62
40.76
40.55
39.88
38.72
37.16
35.32
33.39
31.49
29.70
27.91
26.00
23.89
21.72
19.86
18.95
19.63
22.28
26.88
32.86
39.36
45.54
50.82
55.07
58.46
61.34
63.83
65.74
66.55
65.60
62.44
57.06
49.96
42.08
34.50
28.20
23.81
21.58
21.35
22.58
24.42
25.83
25.71
23.24
18.09
10.51
1.25
-8.79
-18.85
-28.47
-37.42
-45.58
-52.87
-59.20
-64.54
-68.98
-72.73
-76.05
-79.16
-82.22
-85.23
-88.03
-90.16
-90.92
-89.41
-84.83
-76.80
-65.55
-51.95
-37.28
-22.94
-10.18
0.14
7.61
12.29
14.67
15.58
15.94
16.53
17.80
19.75
22.05
24.28
26.12
27.48
28.56
29.67
31.10
33.02
35.30
37.59
39.27
39.75
38.53
35.47
30.89
25.43
20.01
15.49
12.39
10.80
10.32
10.25
9.89
8.82
7.08
5.14
3.69
3.30
4.16
5.89
7.71
8.70
8.18
5.94
2.28
-2.15
-6.64
-10.63
-13.89
-16.43
-18.51
-20.53
-22.98
-26.37
-31.19
-37.82
-46.38
-56.68
-68.21
-80.14
-91.35
-100.56
-106.56
-108.50
-106.18
-100.11
-91.28
-80.70
-69.01
-56.37
-42.66
-27.99
-13.00
1.05
12.73
21.06
25.84
27.80
28.13
28.04
28.32
29.39
31.32
34.06
37.49
41.38
45.31
48.74
51.09
52.02
51.53
49.89
47.50
44.54
40.82
35.82
28.90
19.64
8.07
-5.17
-18.94
-31.84
-42.55
-50.15
-54.26
-55.08
-53.18
-49.27
-43.98
-37.77
-30.97
-23.93
-17.10
-10.95
-5.90
-2.06
0.89
3.61
6.86
11.17
16.63
22.88
29.27
35.05
39.60
42.57
43.77
43.12
40.55
35.99
29.50
21.35
12.10
2.39
-7.21
-16.38
-24.89
-32.46
-38.45
-41.85
-41.64
-37.28
-29.26
-19.08
-8.89
-0.61
4.79
7.64
9.28
11.41
15.24
21.07
28.28
35.69
42.21
47.25
50.90
53.62
55.73
57.14
57.20
55.05
50.02
42.06
31.67
19.82
7.51
-4.43
-15.46
-25.23
-33.68
-41.03
-47.86
-54.98
-63.04
-72.05
-81.15
-88.77
-93.31
-93.81
-90.47
-84.56
-77.77
-71.52
-66.40
-62.01
-57.46
-51.85
-44.79
-36.53
-27.83
-19.51
-12.17
-6.07
-1.22
2.44
4.83
5.69
4.69
1.61
-3.54
-10.49
-18.66
-27.31
-35.53
-42.37
-46.92
-48.47
-46.66
-41.58
-33.83
-24.34
-14.22
-4.45
4.22
11.38
16.88
20.75
23.11
24.09
23.93
22.98
21.74
20.79
20.59
21.38
23.04
25.16
27.20
28.69
29.38
29.21
28.29
26.81
24.97
22.91
20.64
18.08
14.96
10.98
5.78
-0.71
-8.17
-15.82
-22.53
-27.17
-28.97
-27.78
-24.07
-18.72
-12.74
-6.95
-1.82
2.46
5.89
8.44
10.01
10.45
9.74
8.02
5.62
3.07
0.85
-0.71
-1.57
-1.93
-2.20
-2.76
-3.76
-5.08
-6.39
-7.31
-7.69
-7.64
-7.43
-7.30
-7.24
-6.96
-6.02
-4.08
-1.07
2.83
7.35
12.32
17.76
23.78
30.33
37.11
43.62
49.25
53.58
56.51
58.34
59.69
61.28
63.71
67.21
71.64
76.45
80.92
84.33
86.21
86.42
85.16
82.85
79.95
76.84
73.61
70.07
65.72
59.98
52.40
42.99
32.36
21.59
11.96
4.49
-0.40
-3.02
-4.28
-5.29
-6.96
-9.66
-13.18
-16.95
-20.43
-23.49
-26.56
-30.49
-36.14
-43.94
-53.55
-63.92
-73.66
-81.43
-86.28
-87.72
-85.64
-80.15
-71.63
-60.82
-48.87
-37.26
-27.47
-20.56
-16.90
-16.21
-17.78
-20.77
-24.58
-28.82
-33.36
-38.23
-43.39
-48.62
-53.29
-56.45
-57.00
-54.19
-47.92
-39.00
-28.92
-19.25
-11.16
-5.03
-0.47
3.37
7.24
11.60
16.46
21.52
26.38
30.66
34.07
36.40
37.52
37.43
36.19
34.09
31.42
28.57
25.71
22.74
19.06
13.77
5.89
-5.25
-19.63
-36.33
-53.70
-69.79
-82.92
-92.14
-97.40
-99.32
-98.77
-96.40
-92.53
-87.10
-80.08
-71.69
-62.59
-53.70
-45.88
-39.59
-34.72
-30.67
-26.71
-22.33
-17.42
-12.22
-7.20
-2.73
1.05
4.25
7.09
9.71
12.07
13.93
14.97
14.94
13.76
11.45
8.12
3.93
-0.81
-5.49
-9.16
-10.65
-8.94
-3.57
5.10
15.99
27.64
38.73
48.42
56.37
62.55
67.08
70.10
71.77
72.38
72.36
72.24
72.45
73.18
74.33
75.54
76.45
76.91
77.07
77.38
78.31
80.21
83.06
86.50
89.88
92.50
93.79
93.43
91.41
87.96
83.44
78.30
73.01
67.92
63.19
58.65
53.69
47.45
39.10
28.32
15.58
2.06
-10.80
-21.98
-31.33
-39.52
-47.52
-55.86
-64.28
-71.82
-77.50
-80.89
-82.56
-83.73
-85.76
-89.51
-95.05
-101.71
-108.48
-114.46
-119.11
-122.40
-124.54
-125.72
-125.83
-124.44
-121.00
-115.07
-106.56
-95.66
-82.69
-67.79
-50.91
-31.94
-11.16
10.53
31.55
50.06
64.53
74.27
79.57
81.57
81.72
81.29
81.07
81.36
82.10
83.16
84.46
85.97
87.57
88.88
89.37
88.44
85.72
81.21
75.21
68.20
60.60
52.69
44.51
36.09
27.55
19.31
12.02
6.42
3.03
1.95
2.76
4.77
7.37
10.28
13.60
17.61
22.34
27.44
32.15
35.58
37.16
36.81
34.94
32.12
28.71
24.57
19.01
10.99
-0.39
-15.45
-33.62
-53.58
-73.68
-92.53
-109.46
-124.42
-137.66
-149.13
-158.22
-163.99
-165.57
-162.59
-155.33
-144.37
-130.30
-113.54
-94.52
-73.99
-53.26
-33.96
-17.62
-5.14
3.48
8.93
12.26
14.43
16.19
18.03
20.30
23.35
27.39
32.45
38.30
44.47
50.43
55.71
60.05
63.38
65.72
66.95
66.75
64.59
59.92
52.44
42.39
30.58
18.24
6.71
-3.00
-10.44
-15.76
-19.46
-22.11
-23.99
-25.09
-25.23
-24.38
-22.74
-20.78
-19.06
-17.94
-17.41
-17.08
-16.39
-14.87
-12.47
-9.51
-6.65
-4.61
-3.93
-4.83
-7.28
-11.17
-16.37
-22.77
-30.13
-37.92
-45.23
-50.92
-53.96
-53.74
-50.18
-43.68
-34.89
-24.37
-12.55
0.24
13.61
26.96
39.43
50.13
58.35
63.81
66.80
68.06
68.60
69.39
71.16
74.27
78.73
84.25
90.41
96.62
102.22
106.51
108.85
108.83
106.33
101.64
95.26
87.75
79.31
69.63
57.89
43.25
25.37
4.95
-16.26
-35.90
-51.79
-62.57
-67.99
-68.64
-65.57
-59.88
-52.59
-44.74
-37.41
-31.53
-27.61
-25.38
-23.80
-21.42
-16.90
-9.59
0.20
11.22
21.65
29.52
33.32
32.21
26.19
15.91
2.44
-12.99
-29.23
-45.20
-60.04
-73.13
-84.10
-92.71
-98.61
-101.16
-99.45
-92.61
-80.34
-63.39
-43.58
-23.39
-5.19
9.45
20.08
27.23
31.91
35.13
37.64
39.98
42.56
45.78
49.94
55.11
61.03
67.05
72.29
75.97
77.54
76.75
73.47
67.31
57.44
42.70
22.12
-4.31
-35.14
-67.55
-98.03
-123.44
-141.79
-152.55
-156.22
-153.76
-146.09
-134.11
-118.98
-102.34
-86.18
-72.26
-61.58
-54.11
-48.96
-45.02
-41.38
-37.69
-33.92
-30.11
-26.07
-21.35
-15.48
-8.34
-0.31
7.74
14.75
19.91
22.93
24.12
24.12
23.60
22.90
22.06
20.91
19.42
17.77
16.30
15.26
14.67
14.39
14.29
14.56
15.69
18.23
22.39
27.80
33.49
38.24
41.06
41.53
39.92
37.06
34.04
31.97
31.69
33.67
37.86
43.79
50.60
57.33
63.23
67.86
71.22
73.49
74.95
75.72
75.80
75.08
73.48
70.94
67.46
63.03
57.60
51.15
43.68
35.27
26.18
16.85
7.95
0.28
-5.41
-8.65
-9.48
-8.59
-7.13
-6.32
-7.01
-9.41
-13.16
-17.56
-21.94
-25.79
-28.81
-30.69
-31.13
-29.81
-26.57
-21.57
-15.30
-8.45
-1.77
4.00
8.24
10.38
10.03
7.08
1.91
-4.70
-11.64
-17.84
-22.52
-25.31
-26.24
-25.53
-23.52
-20.56
-17.00
-13.14
-9.27
-5.60
-2.29
0.58
3.07
5.34
7.75
10.75
14.76
19.95
26.09
32.54
38.44
43.06
46.01
47.34
47.39
46.62
45.37
43.82
42.02
39.91
37.35
34.17
30.19
25.37
20.02
14.84
10.93
9.40
11.04
16.01
23.72
33.01
42.51
50.92
57.38
61.48
63.21
62.86
60.89
57.92
54.67
51.90
50.14
49.70
50.47
52.16
54.43
57.07
60.01
63.11
65.96
67.87
68.04
65.92
61.52
55.41
48.43
41.21
33.92
26.27
17.84
8.49
-1.47
-11.35
-20.46
-28.47
-35.53
-42.14
-48.84
-55.82
-62.89
-69.65
-75.64
-80.60
-84.38
-86.82
-87.52
-86.01
-81.96
-75.40
-67.04
-58.01
-49.56
-42.60
-37.47
-33.91
-31.36
-29.25
-27.12
-24.81
-22.31
-19.75
-17.28
-15.19
-13.76
-13.31
-14.17
-16.43
-20.00
-24.52
-29.46
-34.25
-38.46
-41.92
-44.63
-46.79
-48.57
-50.04
-51.12
-51.60
-51.29
-50.05
-47.93
-45.06
-41.63
-37.80
-33.70
-29.46
-25.21
-21.16
-17.51
-14.51
-12.28
-10.89
-10.30
-10.47
-11.35
-12.89
-15.00
-17.49
-20.12
-22.58
-24.59
-25.98
-26.72
-26.86
-26.52
-25.84
-24.99
-24.16
-23.60
-23.55
-24.13
-25.32
-26.86
-28.35
-29.35
-29.47
-28.52
-26.45
-23.46
-19.83
-15.95
-12.19
-8.82
-5.98
-3.75
-2.17
-1.25
-1.01
-1.39
-2.22
-3.23
-4.11
-4.72
-5.09
-5.42
-5.98
-6.93
-8.23
-9.71
-11.16
-12.47
-13.70
-15.03
-16.71
-18.93
-21.73
-25.05
-28.68
-32.32
-35.60
-38.20
-39.87
-40.55
-40.32
-39.36
-37.86
-36.01
-34.00
-32.07
-30.62
-30.00
-30.56
-32.33
-35.05
-38.16
-41.01
-43.04
-43.90
-43.50
-41.89
-39.14
-35.22
-30.08
-23.70
-16.26
-8.30
-0.59
6.05
11.04
14.20
15.88
16.74
17.69
19.57
23.08
28.56
35.84
44.13
52.18
58.68
62.81
64.67
65.30
66.18
68.41
72.08
76.09
78.58
77.91
73.63
66.84
59.97
55.73
56.08
61.38
70.33
80.41
88.84
93.50
93.48
89.07
81.43
71.90
61.60
51.08
40.43
29.33
17.25
3.61
-12.12
-30.25
-50.73
-73.11
-96.68
-120.69
-144.61
-168.29
-191.97
-216.23
-241.73
-268.59
-295.85
-321.03
-340.25
-349.07
-343.95
-323.43
-288.70
-243.19
-191.34
-137.43
-84.79
-35.89
7.27
42.90
69.68
87.21
96.50
99.86
100.16
99.92
100.57
102.29
104.39
105.74
105.43
102.89
98.01
91.08
82.73
73.81
65.31
58.15
52.97
49.91
48.58
48.23
47.86
46.52
43.39
37.91
29.85
19.40
7.25
-5.36
-16.90
-25.83
-31.08
-32.39
-30.47
-26.76
-22.75
-19.37
-16.42
-12.70
-6.80
1.97
12.93
24.20
33.61
39.75
42.49
42.63
41.26
39.19
37.03
35.62
36.18
39.79
46.46
54.42
60.43
61.19
55.11
43.26
29.06
16.60
8.85
6.68
9.08
14.35
21.30
29.72
40.16
53.19
68.86
86.48
104.83
122.63
138.93
153.15
164.99
174.22
180.60
184.03
184.89
184.14
183.28
183.90
187.17
193.36
201.77
211.05
219.60
226.18
230.14
231.38
230.12
226.73
221.44
214.27
205.01
193.13
177.99
159.01
135.85
108.51
77.48
43.69
8.53
-26.28
-58.90
-87.54
-110.80
-127.80
-138.42
-143.18
-143.18
-139.87
-134.78
-129.27
-124.27
-120.22
-117.11
-114.61
-112.27
-109.62
-106.31
-102.01
-96.43
-89.38
-80.75
-70.55
-58.91
-46.14
-32.94
-20.45
-10.20
-3.80
-2.31
-5.85
-13.32
-22.69
-31.63
-38.25
-41.83
-42.97
-43.74
-46.41
-52.33
-61.27
-71.51
-80.46
-85.49
-85.13
-79.39
-70.06
-59.34
-48.89
-39.14
-29.67
-19.82
-9.28
1.39
11.08
17.76
20.21
18.90
15.91
13.73
14.21
18.19
24.99
33.24
39.04
39.80
35.83
29.81
24.52
21.28
20.40
20.77
21.77
18.59
8.79
-5.55
-19.36
-28.81
-33.70
-35.68
-38.83
-45.86
-65.81
-103.74
-157.20
-217.92
-277.68
-331.70
-376.42
-411.66
-436.96
-462.68
-497.10
-540.87
-587.66
-630.36
-665.22
-689.28
-703.99
-644.92
-482.07
-239.82
18.17
238.65
402.72
504.60
570.05
614.29
645.09
655.44
639.61
602.77
556.73
513.36
479.27
457.90
446.40
441.72
433.22
413.50
382.78
347.62
315.24
289.24
271.24
258.44
248.06
232.82
207.65
172.57
131.91
90.87
52.74
19.71
-8.93
-34.18
-59.59
-88.04
-120.35
-155.77
-193.37
-232.82
-272.94
-311.75
-345.13
-368.70
-378.55
-372.70
-352.22
-321.13
-285.25
-250.00
-219.34
-194.88
-176.32
-162.44
-151.85
-143.42
-136.15
-129.24
-122.20
-115.04
-108.17
-102.10
-97.17
-93.45
-90.67
-88.16
-85.26
-81.63
-77.52
-73.52
-70.06
-67.04
-63.81
-59.51
-53.17
-44.42
-34.62
-27.19
-26.74
-37.61
-62.59
-102.04
-153.19
-208.99
-259.24
-293.86
-306.60
-296.86
-269.12
-231.42
-192.73
-160.11
-135.21
-114.78
-94.47
-72.61
-50.63
-30.81
-14.44
-1.03
11.74
29.34
58.42
103.27
163.59
236.02
317.11
403.84
492.08
565.00
597.05
573.59
504.72
415.17
327.34
254.16
199.19
159.94
127.52
97.65
70.46
47.36
28.14
11.28
-4.67
-17.37
-24.57
-24.84
-16.34
2.35
30.30
62.75
92.77
114.13
123.49
120.50
108.05
92.19
79.76
75.23
78.48
85.54
91.20
91.25
83.34
67.70
47.55
27.59
11.82
1.58
-4.55
-9.48
-15.91
-25.45
-37.98
-51.92
-65.37
-77.52
-89.36
-103.24
-122.01
-148.03
-182.58
-224.82
-270.94
-313.69
-344.38
-355.59
-343.36
-308.11
-254.55
-190.44
-124.53
-64.39
-13.72
26.46
56.18
75.72
85.80
87.68
83.24
74.96
65.87
61.10
64.25
74.73
87.79
97.25
98.37
89.78
73.94
56.21
45.40
48.12
65.13
92.03
122.79
152.48
178.33
198.99
197.55
164.79
108.12
45.35
-10.62
-56.01
-91.96
-120.16
-142.09
-158.71
-168.17
-169.55
-164.77
-157.64
-151.62
-148.33
-147.11
-146.69
-145.83
-141.73
-132.60
-118.63
-101.61
-82.67
-66.36
-54.01
-45.81
-41.30
-38.45
-35.57
-31.06
-25.21
-19.41
-15.23
-12.73
-11.38
-10.18
-7.44
-1.79
9.82
28.25
51.67
76.87
101.75
125.34
147.60
169.40
191.87
220.58
258.84
305.74
356.95
407.58
452.90
488.52
510.82
517.19
512.70
501.71
485.17
461.64
430.70
393.85
353.77
313.39
242.04
134.35
10.47
-100.07
-180.71
-231.38
-260.24
-276.55
-287.89
-300.48
-312.61
-321.74
-327.53
-330.52
-329.61
-322.47
-307.92
-281.71
-250.04
-219.64
-196.54
-183.72
-180.45
-183.05
-187.70
-192.42
-197.17
-203.42
-208.34
-207.98
-200.80
-188.30
-172.59
-155.96
-140.37
-126.89
-116.48
-107.47
-96.97
-83.88
-68.90
-53.59
-39.56
-27.78
-18.00
-8.68
-3.11
-0.37
0.91
1.86
3.24
5.39
8.39
12.20
16.66
21.85
29.32
40.26
55.42
75.06
99.01
126.91
158.13
191.37
224.52
255.50
281.75
301.28
313.60
320.01
323.05
325.37
328.45
332.04
335.02
335.51
331.84
322.98
308.39
287.64
260.11
225.05
181.87
130.82
73.00
10.49
-53.71
-116.08
-173.16
-222.26
-261.88
-291.94
-313.52
-328.60
-339.43
-348.18
-356.42
-364.90
-373.34
-380.43
-384.06
-381.83
-371.71
-352.57
-324.63
-289.42
-249.51
-208.01
-167.87
-131.42
-100.01
-74.03
-53.19
-36.91
-24.54
-15.51
-9.18
-4.74
-1.11
2.89
8.37
16.09
26.23
38.45
52.00
65.86
78.91
90.08
98.44
103.35
104.48
101.86
95.85
87.11
76.51
65.05
53.81
43.80
35.85
30.54
28.12
28.53
31.40
36.20
42.27
48.98
55.69
61.78
66.69
69.90
71.11
70.16
67.27
62.90
57.82
52.83
48.57
45.28
42.72
40.34
37.52
33.93
29.63
25.02
20.61
16.83
13.82
11.51
9.60
7.62
5.04
1.35
-3.64
-9.60
-15.49
-19.78
-21.06
-18.59
-12.81
-5.19
2.38
8.27
11.75
12.96
12.57
11.23
9.35
7.15
4.93
3.32
3.04
4.67
8.27
13.31
18.97
24.52
29.59
34.23
38.62
42.75
46.28
48.64
49.38
48.38
46.01
42.84
39.43
36.00
32.37
28.20
23.15
17.19
10.67
4.27
-1.25
-5.19
-7.09
-6.81
-4.44
-0.39
4.76
10.33
15.69
20.37
24.22
27.33
29.97
32.41
34.72
36.75
38.16
38.57
37.76
35.80
33.00
29.83
26.68
23.74
20.89
17.87
14.39
10.36
5.95
1.47
-2.80
-6.83
-10.91
-15.62
-21.61
-29.44
-39.35
-51.11
-63.96
-76.52
-86.96
-93.27
-93.85
-87.92
-75.98
-59.68
-41.33
-23.16
-6.71
7.40
19.31
29.40
37.81
44.34
48.57
50.28
49.67
47.37
44.22
40.90
37.70
34.59
31.35
27.84
24.09
20.35
16.91
14.01
11.74
9.99
8.63
7.47
6.39
5.36
4.37
3.29
1.92
-0.09
-2.98
-6.70
-10.76
-14.29
-16.30
-16.08
-13.44
-8.86
-3.15
2.81
8.45
13.46
17.80
21.46
24.30
26.18
26.91
26.51
25.12
23.03
20.52
17.86
15.26
12.75
10.28
7.69
4.84
1.71
-1.54
-4.61
-7.19
-9.05
-10.16
-10.67
-10.78
-10.68
-10.49
-10.26
-10.08
-10.04
-10.16
-10.38
-10.40
-9.88
-8.49
-6.06
-2.67
1.47
6.14
11.20
16.63
22.43
28.44
34.25
39.18
42.49
43.53
41.95
37.81
31.60
24.19
16.62
9.91
4.74
1.35
-0.46
-1.23
-1.57
-1.93
-2.45
-2.99
-3.25
-2.95
-2.04
-0.79
0.30
0.63
-0.18
-2.15
-4.93
-7.90
-10.49
-12.39
-13.52
-13.91
-13.51
-12.07
-9.25
-4.77
1.27
8.43
15.89
22.75
28.16
31.46
32.16
29.97
24.80
16.87
6.90
-3.92
-14.01
-21.78
-26.07
-26.49
-23.58
-18.61
-13.13
-8.54
-5.57
-4.19
-3.67
-2.98
-1.24
1.79
5.63
9.28
11.67
12.14
10.71
7.99
4.80
1.89
-0.37
-1.87
-2.61
-2.51
-1.41
0.76
3.83
7.35
10.74
13.57
15.71
17.36
18.84
20.31
21.55
22.04
21.17
18.70
14.93
10.65
6.86
4.31
3.19
3.08
3.16
2.52
0.37
-3.79
-10.11
-18.38
-28.01
-38.03
-47.20
-54.29
-58.37
-59.15
-57.07
-53.23
-49.03
-45.73
-44.12
-44.20
-45.32
-46.36
-46.19
-44.02
-39.66
-33.44
-26.05
-18.23
-10.47
-2.97
4.36
11.73
19.23
26.81
34.23
41.11
46.95
51.26
53.61
53.80
51.91
48.45
44.25
40.20
36.98
34.83
33.52
32.61
31.65
30.45
29.06
27.62
26.16
24.50
22.35
19.48
15.80
11.47
6.70
1.62
-3.87
-10.08
-17.32
-25.69
-34.92
-44.41
-53.29
-60.58
-65.30
-66.57
-63.81
-56.90
-46.36
-33.42
-19.83
-7.46
2.20
8.47
11.59
12.47
12.29
11.90
11.65
11.36
10.61
9.05
6.65
3.70
0.63
-2.19
-4.56
-6.42
-7.72
-8.29
-7.93
-6.53
-4.21
-1.35
1.64
4.48
7.13
9.79
12.67
15.93
19.58
23.57
27.86
32.49
37.41
42.41
47.01
50.52
52.25
51.70
48.67
43.29
35.94
27.11
17.39
7.41
-2.16
-10.66
-17.53
-22.42
-25.23
-26.13
-25.52
-23.91
-21.80
-19.57
-17.35
-15.05
-12.52
-9.64
-6.52
-3.53
-1.16
0.25
0.70
0.59
0.58
1.28
2.99
5.60
8.66
11.59
13.80
14.74
13.99
11.17
6.12
-1.07
-9.98
-19.85
-29.75
-38.80
-46.30
-51.76
-54.89
-55.51
-53.65
-49.61
-44.07
-37.94
-32.12
-27.19
-23.20
-19.75
-16.21
-12.15
-7.63
-3.17
0.40
2.38
2.42
0.70
-2.19
-5.47
-8.47
-10.76
-12.25
-13.08
-13.44
-13.51
-13.43
-13.28
-13.09
-12.88
-12.58
-12.04
-11.05
-9.34
-6.74
-3.21
1.11
5.87
10.66
15.06
18.77
21.65
23.69
25.04
25.88
26.41
26.77
27.03
27.14
26.95
26.36
25.36
24.09
22.78
21.66
20.79
20.05
19.22
18.06
16.46
14.38
11.85
8.87
5.42
1.57
-2.40
-5.98
-8.52
-9.45
-8.52
-5.90
-2.25
1.56
4.70
6.79
7.97
8.88
10.36
12.96
16.77
21.33
25.88
29.63
32.16
33.36
33.38
32.54
31.09
29.25
27.20
25.17
23.32
21.79
20.58
19.57
18.58
17.40
15.78
13.47
10.23
5.94
0.75
-4.85
-10.15
-14.38
-17.10
-18.34
-18.59
-18.44
-18.37
-18.43
-18.37
-17.73
-16.12
-13.39
-9.56
-4.86
0.36
5.61
10.30
13.84
15.73
15.75
13.97
10.73
6.45
1.45
-4.16
-10.60
-18.33
-27.97
-39.95
-54.23
-69.99
-85.69
-99.31
-108.94
-113.37
-112.31
-106.39
-96.63
-84.14
-69.88
-54.72
-39.68
-25.97
-14.84
-7.09
-2.74
-1.00
-0.62
-0.38
0.42
1.83
3.45
4.74
5.34
5.17
4.42
3.36
2.29
1.42
0.90
0.81
1.12
1.63
2.02
1.96
1.24
-0.05
-1.51
-2.57
-2.64
-1.38
1.20
4.74
8.66
12.35
15.30
17.20
17.95
17.68
16.69
15.39
14.15
13.22
12.61
12.15
11.60
10.84
9.86
8.80
7.74
6.66
5.34
3.48
0.83
-2.67
-6.85
-11.30
-15.50
-18.85
-20.77
-20.75
-18.54
-14.14
-7.88
-0.35
7.75
15.76
23.20
29.79
35.41
39.98
43.41
45.64
46.66
46.68
46.13
45.59
45.58
46.37
47.82
49.42
50.46
50.29
48.65
45.64
41.67
37.26
32.65
27.77
22.19
15.37
6.98
-2.87
-13.49
-23.80
-32.60
-38.93
-42.30
-42.71
-40.53
-36.39
-31.01
-25.17
-19.58
-14.85
-11.33
-9.10
-7.94
-7.49
-7.43
-7.60
-8.01
-8.80
-10.10
-12.01
-14.61
-17.97
-22.24
-27.56
-34.04
-41.66
-50.17
-59.06
-67.45
-74.11
-77.52
-76.32
-69.73
-57.95
-42.35
-25.13
-8.60
5.53
16.58
24.93
31.44
36.91
41.56
45.05
46.85
46.70
44.90
42.26
39.70
37.84
36.69
35.65
33.79
30.23
24.54
16.79
7.45
-2.87
-13.69
-24.69
-35.66
-46.24
-55.76
-63.26
-67.60
-67.83
-63.42
-54.41
-41.51
-25.91
-9.03
7.67
23.01
36.15
46.65
54.48
59.89
63.30
65.10
65.54
64.59
61.94
57.15
49.98
40.53
29.41
17.53
5.82
-5.04
-14.82
-23.61
-31.65
-39.10
-45.98
-52.20
-57.56
-61.74
-64.32
-64.84
-62.97
-58.79
-52.89
-46.22
-39.66
-33.65
-28.01
-22.11
-15.37
-7.69
0.35
7.78
13.70
17.67
19.89
20.92
21.29
21.13
20.15
17.77
13.51
7.17
-1.07
-10.75
-21.27
-31.88
-41.67
-49.56
-54.46
-55.55
-52.55
-45.93
-36.78
-26.50
-16.37
-7.18
0.84
7.88
14.26
20.21
25.83
31.09
36.00
40.67
45.20
49.57
53.53
56.58
58.19
58.11
56.54
54.16
51.84
50.23
49.37
48.59
46.69
42.42
34.89
23.86
9.79
-6.36
-23.32
-39.74
-54.26
-65.72
-73.29
-76.65
-76.02
-72.01
-65.42
-56.90
-46.93
-35.82
-23.98
-12.02
-0.74
9.06
16.79
22.27
25.72
27.64
28.55
28.82
28.49
27.37
25.21
21.86
17.48
12.47
7.33
2.49
-1.82
-5.60
-8.99
-12.13
-15.08
-17.80
-20.06
-21.52
-21.70
-20.09
-16.33
-10.31
-2.33
6.98
16.87
26.65
35.87
44.34
51.97
58.64
64.15
68.23
70.69
71.54
71.03
69.53
67.33
64.47
60.66
55.37
48.03
38.29
26.18
12.09
-3.32
-19.25
-34.85
-49.27
-61.61
-70.98
-76.73
-78.55
-76.70
-71.81
-64.71
-56.12
-46.44
-35.83
-24.38
-12.38
-0.43
10.62
19.93
26.90
31.36
33.50
33.74
32.55
30.36
27.54
24.38
21.18
18.09
15.11
12.03
8.45
3.99
-1.62
-8.41
-16.14
-24.36
-32.47
-39.76
-45.52
-49.16
-50.35
-49.08
-45.77
-41.03
-35.50
-29.66
-23.75
-17.79
-11.77
-5.67
0.43
6.44
12.24
17.70
22.69
27.12
30.91
33.97
36.18
37.28
36.88
34.55
29.93
22.97
13.96
3.49
-7.75
-19.15
-30.19
-40.41
-49.21
-55.85
-59.65
-60.30
-58.00
-53.47
-47.57
-40.98
-33.93
-26.29
-17.89
-8.80
0.55
9.55
17.67
24.66
30.57
35.59
39.86
43.35
45.93
47.41
47.72
46.83
44.85
41.84
37.88
32.94
27.07
20.44
13.41
6.53
0.43
-4.29
-7.25
-8.34
-7.66
-5.45
-1.82
3.15
9.43
16.82
24.82
32.62
39.33
44.14
46.65
46.85
45.15
42.14
38.49
34.82
31.60
29.14
27.47
26.35
25.27
23.58
20.74
16.46
10.74
3.77
-4.25
-13.20
-23.16
-34.34
-46.87
-60.60
-74.87
-88.43
-99.59
-106.69
-108.52
-104.83
-96.37
-84.55
-70.96
-56.82
-42.84
-29.34
-16.57
-4.93
5.12
13.29
19.68
24.87
29.64
34.67
40.30
46.39
52.51
58.06
62.51
65.40
66.36
65.10
61.40
55.27
46.94
36.85
25.59
13.82
2.17
-8.76
-18.49
-26.67
-33.08
-37.66
-40.45
-41.50
-40.94
-38.97
-35.89
-32.10
-28.07
-24.16
-20.59
-17.42
-14.56
-11.91
-9.35
-6.87
-4.52
-2.42
-0.80
0.06
-0.14
-1.66
-4.72
-9.39
-15.65
-23.37
-32.31
-42.07
-52.03
-61.30
-68.76
-73.25
-73.87
-70.29
-62.80
-52.27
-39.89
-26.81
-13.95
-1.94
8.91
18.46
26.72
33.85
40.05
45.66
50.97
56.26
61.65
67.14
72.62
77.86
82.62
86.58
89.43
90.85
90.52
88.03
83.02
75.20
64.52
51.21
35.81
19.05
1.66
-15.67
-32.39
-48.00
-62.06
-74.06
-83.50
-89.94
-93.13
-93.17
-90.46
-85.68
-79.54
-72.62
-65.22
-57.40
-49.06
-40.08
-30.50
-20.54
-10.51
-0.78
8.22
15.99
21.88
25.18
25.33
22.03
15.44
6.13
-5.11
-17.35
-29.67
-41.07
-50.46
-56.81
-59.37
-57.93
-52.93
-45.28
-36.07
-26.15
-16.00
-5.83
4.20
13.78
22.46
29.81
35.62
40.03
43.48
46.52
49.63
53.10
56.93
60.96
64.81
68.01
70.06
70.46
68.82
64.94
58.87
50.94
41.62
31.46
20.89
10.17
-0.50
-10.92
-20.69
-29.13
-35.43
-38.81
-38.85
-35.73
-30.31
-24.01
-18.38
-14.63
-13.18
-13.55
-14.64
-15.21
-14.42
-12.14
-8.82
-5.08
-1.40
2.09
5.42
8.45
10.72
11.53
10.35
7.09
2.25
-3.38
-9.10
-14.66
-20.21
-26.07
-32.33
-38.59
-43.99
-47.55
-48.47
-46.37
-41.33
-33.84
-24.59
-14.49
-4.57
4.12
10.62
14.46
15.79
15.52
15.04
15.71
18.39
23.07
28.97
34.84
39.54
42.31
42.89
41.42
38.16
33.35
27.21
19.97
12.00
3.72
-4.51
-12.44
-19.94
-26.80
-32.56
-36.51
-37.86
-36.18
-31.69
-25.34
-18.50
-12.54
-8.33
-6.02
-5.19
-5.17
-5.41
-5.65
-5.94
-6.43
-7.19
-8.06
-8.79
-9.15
-9.23
-9.50
-10.73
-13.72
-18.97
-26.53
-35.87
-45.99
-55.43
-62.45
-65.16
-61.97
-52.10
-36.17
-16.19
4.86
24.07
39.59
51.09
59.54
66.33
72.48
78.12
82.69
85.53
86.41
85.68
84.13
82.54
81.37
80.64
80.05
79.25
77.98
76.16
73.87
71.21
68.16
64.50
59.90
53.96
46.42
37.24
26.60
14.83
2.32
-10.51
-23.13
-34.74
-44.33
-50.90
-53.82
-53.21
-49.94
-45.29
-40.47
-36.17
-32.45
-29.00
-25.57
-22.29
-19.63
-18.09
-17.78
-18.19
-18.37
-17.44
-15.14
-12.10
-9.63
-9.21
-11.81
-17.51
-25.52
-34.65
-43.79
-52.31
-60.07
-67.09
-73.26
-78.21
-81.38
-82.18
-80.24
-75.36
-67.55
-56.98
-44.09
-29.68
-14.89
-1.04
10.74
19.82
26.18
30.30
32.78
34.10
34.44
33.85
32.36
30.25
28.03
26.32
25.61
25.98
26.99
27.71
27.00
23.79
17.45
8.08
-3.51
-15.90
-27.39
-36.41
-41.80
-43.07
-40.33
-34.21
-25.66
-15.81
-5.87
2.91
9.53
13.32
14.20
12.65
9.55
5.84
2.16
-1.23
-4.39
-7.42
-10.29
-12.80
-14.67
-15.79
-16.33
-16.68
-17.28
-18.47
-20.34
-22.70
-25.20
-27.34
-28.58
-28.37
-26.22
-21.89
-15.43
-7.11
2.69
13.74
25.88
38.91
52.34
65.29
76.63
85.37
91.08
94.00
94.96
94.94
94.59
94.08
93.07
91.08
87.75
83.04
77.33
71.26
65.74
61.52
59.03
58.07
57.80
57.01
54.45
49.29
41.27
30.73
18.32
4.91
-8.57
-21.03
-31.39
-38.76
-42.89
-44.31
-44.25
-44.19
-45.12
-47.11
-49.25
-50.13
-48.44
-43.52
-35.66
-25.94
-15.80
-6.66
0.54
5.51
8.59
10.50
11.87
12.89
13.10
11.63
7.64
0.87
-8.05
-17.80
-26.77
-33.69
-37.90
-39.30
-38.05
-34.25
-28.03
-19.70
-9.99
-0.07
8.82
15.95
21.38
25.96
30.95
37.34
45.45
54.79
64.38
73.13
80.26
85.46
88.85
90.87
91.99
92.70
93.31
93.97
94.64
94.98
94.50
92.58
88.74
82.73
74.72
65.24
55.01
44.75
34.97
25.92
17.73
10.49
4.33
-0.66
-4.54
-7.42
-9.24
-9.53
-7.40
-2.03
6.62
17.17
26.89
32.59
31.97
24.85
13.41
1.38
-7.49
-10.87
-8.51
-1.88
6.87
15.78
23.56
29.50
33.18
34.36
33.20
30.46
27.53
25.90
26.34
28.29
29.84
28.51
22.39
11.17
-3.63
-19.26
-32.88
-42.67
-48.33
-50.80
-51.51
-51.65
-51.74
-51.84
-51.90
-52.09
-52.65
-53.61
-54.47
-54.17
-51.52
-45.80
-37.33
-27.51
-18.46
-12.20
-9.86
-11.28
-15.20
-19.89
-24.04
-27.28
-30.24
-33.97
-39.26
-46.19
-54.21
-62.60
-71.04
-79.64
-88.57
-97.52
-105.48
-111.14
-113.63
-113.10
-110.89
-108.77
-108.08
-109.07
-110.89
-112.33
-112.59
-111.82
-110.89
-110.75
-111.65
-112.87
-113.16
-111.59
-108.32
-104.85
-103.36
-105.57
-111.81
-120.66
-129.55
-135.78
-137.36
-133.35
-123.86
-109.79
-92.78
-74.89
-58.38
-44.88
-34.89
-27.49
-20.92
-13.56
-4.98
3.85
11.13
15.37
16.30
15.20
14.26
15.52
19.90
26.82
34.56
41.10
45.05
46.12
45.05
42.91
40.41
37.69
34.58
31.23
28.37
27.10
28.12
31.09
34.59
36.91
37.01
35.24
33.02
31.76
31.65
31.27
28.19
20.41
7.62
-8.50
-25.10
-39.49
-50.28
-57.61
-62.40
-65.38
-66.49
-65.03
-60.40
-52.82
-43.71
-35.39
-30.63
-31.99
-41.10
-57.95
-80.31
-103.67
-122.07
-129.82
-123.41
-102.85
-71.58
-35.27
0.23
30.45
53.00
67.29
73.89
73.81
68.41
59.39
48.84
38.98
31.70
28.11
28.32
31.53
36.27
40.95
44.19
45.29
44.34
42.11
39.71
38.00
37.14
36.60
35.45
33.04
29.54
25.85
23.23
22.42
23.17
24.24
24.12
21.79
17.32
11.79
6.75
3.48
2.45
3.35
5.32
7.31
8.52
8.41
6.79
3.84
0.12
-3.51
-5.98
-6.40
-4.30
0.20
6.41
13.35
20.07
25.90
30.63
34.44
37.82
41.26
45.07
49.19
53.09
55.98
57.06
55.82
52.26
46.94
40.75
34.57
29.00
24.20
20.00
16.04
12.10
8.19
4.54
1.57
-0.32
-0.82
0.23
2.82
6.76
11.63
16.84
21.60
25.13
26.87
26.75
25.20
23.08
21.18
19.89
18.89
17.35
14.33
9.46
3.22
-3.14
-8.11
-10.64
-10.53
-8.43
-5.40
-2.34
0.33
2.61
4.55
5.93
6.30
5.16
2.41
-1.36
-4.97
-7.10
-6.73
-3.57
1.99
9.06
16.64
23.85
30.09
35.03
38.71
41.49
44.03
47.08
51.03
55.71
60.23
63.25
63.55
60.52
54.47
46.47
37.90
29.86
22.89
16.99
11.83
7.15
3.04
-0.06
-1.48
-0.64
2.70
8.33
15.68
23.99
32.62
41.06
48.78
54.99
58.53
58.09
52.73
42.44
28.40
12.68
-2.56
-15.76
-26.35
-34.55
-40.78
-45.12
-47.16
-46.35
-42.46
-36.00
-28.07
-19.96
-12.61
-6.51
-1.99
0.39
-0.39
-5.48
-15.47
-29.59
-45.49
-59.78
-69.26
-72.24
-69.28
-62.91
-56.48
-52.85
-53.38
-57.79
-64.56
-71.65
-77.12
-79.44
-77.69
-71.69
-62.01
-49.87
-36.91
-24.70
-14.27
-5.93
0.66
6.11
10.92
15.34
19.35
22.78
25.47
27.33
28.36
28.64
28.37
27.81
27.22
26.82
26.68
26.75
26.85
26.77
26.26
25.03
22.75
19.14
14.11
7.92
1.29
-4.89
-9.86
-13.42
-16.02
-18.56
-21.79
-25.78
-29.59
-31.66
-30.52
-25.62
-17.77
-8.91
-1.39
3.12
4.16
2.59
0.10
-1.68
-1.83
-0.36
2.01
4.49
6.68
8.76
11.31
14.96
20.01
26.29
33.24
40.13
46.29
51.30
55.04
57.74
59.81
61.67
63.52
65.19
66.18
65.82
63.69
59.92
55.13
50.24
45.85
41.98
37.97
32.93
26.25
18.04
9.14
0.71
-6.28
-11.52
-15.37
-18.64
-22.18
-26.50
-31.66
-37.23
-42.46
-46.42
-48.22
-47.22
-43.08
-35.85
-25.86
-13.73
-0.22
13.71
26.97
38.40
46.92
51.70
52.23
48.37
40.38
29.01
15.43
1.21
-12.04
-23.03
-31.13
-36.44
-39.46
-40.70
-40.33
-38.30
-34.54
-29.48
-24.16
-19.94
-17.99
-18.72
-21.56
-25.18
-28.22
-29.83
-29.98
-29.38
-28.85
-28.78
-28.74
-27.55
-23.87
-16.76
-6.16
7.00
21.14
34.52
45.78
54.14
59.43
61.91
62.02
60.24
56.96
52.61
47.71
42.92
39.00
36.74
36.71
39.12
43.75
49.93
56.81
63.55
69.55
74.45
78.10
80.36
81.02
79.87
76.82
72.10
66.22
59.95
54.00
48.74
44.02
39.12
32.97
24.56
13.48
0.20
-13.89
-26.92
-37.20
-43.83
-46.93
-47.43
-46.61
-45.53
-44.79
-44.52
-44.66
-45.05
-45.49
-45.74
-45.39
-44.04
-41.48
-37.88
-33.82
-30.07
-27.24
-25.45
-24.29
-23.06
-21.07
-18.02
-14.02
-9.41
-4.49
0.69
6.19
11.91
17.35
21.53
23.48
22.65
19.39
14.88
10.61
7.80
6.94
7.72
9.39
11.23
12.84
14.27
15.80
17.63
19.74
21.89
23.73
24.88
24.99
23.75
20.81
15.94
9.13
0.79
-8.25
-16.87
-24.05
-29.10
-31.92
-32.97
-33.00
-32.83
-33.01
-33.78
-35.01
-36.32
-37.18
-37.07
-35.61
-32.63
-28.20
-22.64
-16.37
-9.87
-3.58
2.00
6.32
8.75
8.75
6.14
1.30
-4.86
-11.23
-16.88
-21.51
-25.48
-29.56
-34.42
-40.24
-46.64
-52.75
-57.59
-60.29
-60.23
-57.19
-51.37
-43.45
-34.50
-25.78
-18.40
-13.13
-10.18
-9.30
-9.86
-11.00
-11.82
-11.48
-9.46
-5.64
-0.42
5.56
11.66
17.51
23.13
28.73
34.52
40.51
46.42
51.83
56.21
59.03
59.74
57.81
52.83
44.69
33.67
20.52
6.31
-7.73
-20.58
-31.66
-40.87
-48.44
-54.62
-59.36
-62.20
-62.42
-59.48
-53.35
-44.75
-34.98
-25.45
-17.11
-10.18
-4.24
1.31
6.76
11.76
15.43
16.70
14.90
10.01
2.69
-5.95
-14.70
-22.47
-28.46
-32.17
-33.60
-33.25
-31.96
-30.64
-29.75
-29.10
-27.92
-25.33
-20.91
-14.92
-8.21
-1.68
4.19
9.50
14.68
20.13
25.86
31.53
36.62
40.84
44.16
46.73
48.75
50.10
50.47
49.37
46.38
41.32
34.39
26.16
17.41
9.02
1.70
-4.06
-8.23
-11.15
-13.45
-15.81
-18.66
-22.04
-25.52
-28.49
-30.41
-31.10
-30.87
-30.29
-29.85
-29.69
-29.47
-28.64
-26.78
-23.94
-20.72
-18.04
-16.73
-17.21
-19.27
-22.30
-25.60
-28.79
-31.94
-35.54
-40.29
-46.71
-54.82
-63.84
-72.30
-78.28
-79.98
-76.29
-67.10
-53.23
-36.01
-16.83
3.19
23.18
42.25
59.38
73.42
83.49
89.30
91.43
91.04
89.50
87.84
86.51
85.33
83.84
81.58
78.38
74.35
69.76
64.83
59.58
53.90
47.62
40.69
33.21
25.39
17.52
9.87
2.73
-3.58
-8.68
-12.26
-14.13
-14.29
-12.85
-9.89
-5.50
0.21
6.87
13.69
19.54
23.25
24.09
22.14
18.33
14.12
10.84
9.28
9.41
10.63
12.12
13.15
13.28
12.24
9.80
5.69
-0.28
-8.13
-17.57
-28.02
-38.75
-49.04
-58.18
-65.45
-70.12
-71.50
-69.19
-63.26
-54.40
-43.64
-32.00
-20.14
-8.20
3.99
16.38
28.42
38.99
46.77
50.84
51.11
48.40
44.06
39.45
35.43
32.30
29.87
27.68
25.25
22.12
17.98
12.71
6.50
-0.16
-6.60
-12.14
-16.27
-18.66
-19.20
-17.88
-14.93
-10.91
-6.74
-3.44
-1.75
-1.67
-2.37
-2.60
-1.27
1.99
6.68
11.84
16.53
20.43
23.72
26.82
29.97
32.91
35.04
35.78
34.90
32.65
29.54
26.04
22.32
18.26
13.68
8.54
3.10
-2.14
-6.75
-10.49
-13.41
-15.72
-17.69
-19.41
-20.80
-21.63
-21.66
-20.64
-18.41
-14.84
-9.88
-3.56
3.86
11.95
20.11
27.70
34.20
39.28
42.77
44.66
45.03
43.91
41.45
37.88
33.58
29.09
24.97
21.78
19.85
19.29
19.85
20.95
21.85
21.85
20.54
17.95
14.45
10.49
6.30
1.72
-3.54
-9.64
-16.29
-22.62
-27.54
-30.12
-30.04
-27.74
-24.26
-20.80
-18.36
-17.42
-17.92
-19.47
-21.56
-23.86
-26.26
-28.82
-31.59
-34.42
-36.99
-38.82
-39.59
-39.21
-37.93
-36.21
-34.61
-33.62
-33.61
-34.80
-37.30
-41.14
-46.14
-51.85
-57.57
-62.36
-65.36
-65.97
-63.97
-59.50
-52.76
-43.92
-33.08
-20.42
-6.56
7.35
19.84
29.48
35.49
37.99
37.86
36.36
34.64
33.43
32.98
33.28
34.26
35.87
38.07
40.71
43.51
46.05
47.85
48.44
47.45
44.64
39.89
33.26
24.90
15.13
4.33
-6.85
-17.55
-26.67
-33.14
-36.31
-36.26
-33.93
-30.82
-28.30
-27.00
-26.51
-25.74
-23.61
-19.78
-14.88
-10.12
-6.55
-4.37
-3.00
-1.44
0.82
3.38
5.03
4.33
0.39
-6.72
-16.06
-26.22
-35.89
-44.06
-49.92
-52.81
-52.18
-47.86
-40.26
-30.35
-19.40
-8.46
1.88
11.56
20.68
29.14
36.52
42.15
45.49
46.46
45.45
43.19
40.40
37.48
34.51
31.40
28.14
24.95
22.29
20.72
20.62
21.96
24.23
26.58
28.00
27.75
25.46
21.18
15.26
8.06
-0.18
-9.31
-19.10
-29.05
-38.34
-46.00
-51.19
-53.54
-53.22
-50.73
-46.51
-40.81
-33.65
-25.14
-15.78
-6.46
1.86
8.52
13.58
17.65
21.47
25.35
28.87
31.02
30.64
27.00
20.11
10.73
0.20
-9.95
-18.29
-23.72
-25.58
-23.83
-18.99
-12.15
-4.62
2.38
8.18
12.81
16.90
21.20
26.21
31.77
37.18
41.55
44.19
45.01
44.36
42.84
40.92
38.72
36.10
32.84
28.89
24.43
19.77
15.19
10.87
6.82
3.02
-0.51
-3.65
-6.15
-7.80
-8.48
-8.32
-7.75
-7.39
-7.86
-9.61
-12.64
-16.55
-20.58
-23.90
-25.84
-26.17
-25.17
-23.42
-21.62
-20.25
-19.37
-18.66
-17.63
-15.90
-13.45
-10.65
-8.14
-6.64
-6.66
-8.52
-12.19
-17.44
-23.83
-30.73
-37.42
-43.19
-47.48
-49.94
-50.34
-48.51
-44.30
-37.70
-29.07
-19.13
-8.90
0.72
9.29
16.95
24.24
31.61
39.12
46.31
52.52
57.26
60.52
62.68
64.19
65.23
65.61
64.89
62.74
59.20
54.72
49.92
45.33
41.14
37.28
33.48
29.54
25.46
21.43
17.74
14.58
11.94
9.52
6.85
3.41
-1.14
-6.81
-13.12
-19.21
-23.96
-26.27
-25.37
-21.04
-13.71
-4.45
5.23
13.66
19.41
21.65
20.39
16.39
10.92
5.29
0.38
-3.67
-7.52
-12.40
-19.62
-30.12
-44.04
-60.64
-78.50
-95.95
-111.55
-124.30
-133.74
-139.64
-141.83
-140.10
-134.24
-124.31
-110.67
-93.95
-74.87
-54.18
-32.68
-11.28
8.79
26.21
39.78
48.90
53.78
55.46
55.48
55.37
56.22
58.49
62.03
66.29
70.60
74.25
76.69
77.45
76.15
72.46
66.08
56.90
45.14
31.51
17.09
3.23
-8.84
-18.31
-24.87
-28.70
-30.18
-29.71
-27.58
-24.08
-19.51
-14.32
-8.96
-3.79
0.98
5.23
8.82
11.51
12.98
13.05
11.85
9.99
8.42
8.05
9.35
12.01
14.89
16.44
15.23
10.49
2.29
-8.51
-20.73
-33.19
-44.91
-55.15
-63.24
-68.56
-70.62
-69.26
-64.75
-57.69
-48.78
-38.62
-27.69
-16.52
-5.88
3.19
9.60
12.58
12.01
8.51
3.34
-1.97
-5.95
-7.50
-6.10
-1.95
4.10
10.69
16.39
20.15
21.59
21.06
19.39
17.47
15.84
14.69
13.79
12.76
11.18
8.67
5.06
0.53
-4.20
-7.78
-8.49
-4.82
3.78
16.39
30.68
43.57
52.32
55.46
53.23
47.21
39.60
32.33
26.64
23.00
21.34
21.28
22.19
23.27
23.53
22.13
18.63
13.20
6.48
-0.64
-7.42
-13.37
-18.28
-22.03
-24.48
-25.51
-25.08
-23.39
-20.79
-17.72
-14.53
-11.54
-9.23
-8.36
-9.88
-14.57
-22.59
-33.16
-44.80
-55.67
-64.16
-69.19
-70.26
-67.40
-61.12
-52.39
-42.63
-33.46
-26.24
-21.55
-19.01
-17.55
-16.06
-14.04
-11.86
-10.60
-11.33
-14.67
-20.49
-28.13
-36.73
-45.36
-52.94
-58.01
-58.87
-54.11
-43.44
-28.28
-11.52
3.39
13.85
19.08
20.21
19.44
18.76
19.15
20.44
21.92
22.97
23.40
23.26
22.50
20.79
17.67
12.95
6.96
0.55
-5.30
-9.97
-13.47
-16.42
-19.65
-23.71
-28.40
-32.83
-35.68
-35.68
-32.08
-24.69
-13.77
0.11
16.24
33.71
51.27
67.53
81.08
90.98
96.95
99.48
99.57
98.34
96.73
95.26
94.08
92.98
91.62
89.62
86.70
82.73
77.78
71.91
65.19
57.54
48.81
38.86
27.68
15.55
3.01
-9.17
-20.15
-29.24
-35.93
-39.94
-40.97
-38.71
-32.84
-23.47
-11.36
1.90
14.27
23.92
29.95
32.64
33.15
32.82
32.51
32.32
31.83
30.62
28.68
26.49
24.68
23.60
22.90
21.57
18.27
11.85
1.94
-10.93
-25.33
-39.35
-51.08
-58.99
-62.15
-60.33
-53.89
-43.85
-31.67
-19.07
-7.55
2.02
9.66
16.00
21.77
27.19
31.68
34.23
33.99
30.98
26.30
21.70
18.94
19.07
22.17
27.49
33.96
40.63
46.82
52.09
56.00
57.97
57.32
53.55
46.68
37.37
26.86
16.61
7.88
1.35
-2.96
-5.67
-7.64
-9.71
-12.29
-15.28
-18.25
-20.69
-22.38
-23.48
-24.39
-25.47
-26.75
-27.83
-28.15
-27.35
-25.55
-23.44
-21.95
-21.83
-23.24
-25.78
-28.76
-31.58
-34.17
-36.88
-40.21
-44.28
-48.58
-52.05
-53.60
-52.74
-49.98
-46.68
-44.43
-44.33
-46.49
-50.08
-53.76
-56.29
-56.94
-55.56
-52.37
-47.75
-42.15
-36.12
-30.38
-25.62
-22.28
-20.27
-18.94
-17.41
-14.91
-11.13
-6.22
-0.59
5.37
11.47
17.66
23.90
30.10
36.13
41.94
47.58
53.08
58.23
62.47
64.96
64.63
60.48
51.83
38.71
22.25
4.76
-10.67
-21.10
-24.96
-22.76
-16.96
-10.97
-7.71
-8.52
-12.96
-19.56
-26.71
-33.56
-39.98
-46.16
-52.01
-56.91
-59.96
-60.58
-58.94
-56.09
-53.55
-52.70
-54.20
-57.79
-62.65
-67.84
-72.83
-77.49
-81.82
-85.59
-88.19
-88.88
-87.03
-82.37
-74.72
-63.88
-49.56
-31.89
-11.93
8.07
25.24
37.14
42.90
43.66
41.99
40.74
41.78
45.61
51.52
58.46
65.69
73.03
80.66
88.65
96.63
103.86
109.39
112.47
112.74
110.26
105.26
97.98
88.54
76.97
63.37
48.05
31.58
14.74
-1.58
-16.56
-29.46
-39.82
-47.63
-53.39
-58.09
-62.87
-68.50
-75.02
-81.61
-86.93
-89.61
-88.76
-84.18
-76.33
-65.96
-53.92
-40.96
-27.80
-15.16
-3.84
5.41
11.98
15.56
16.20
14.32
10.56
5.60
0.02
-5.82
-11.71
-17.60
-23.53
-29.55
-35.52
-40.91
-44.67
-45.39
-41.83
-33.53
-21.26
-6.94
7.01
18.61
27.08
33.02
38.01
43.80
51.53
61.43
72.85
84.68
95.76
105.20
112.51
117.46
119.95
119.88
117.05
111.28
102.68
91.66
78.95
65.27
51.09
36.59
21.88
7.27
-6.57
-18.75
-28.53
-35.77
-41.00
-45.10
-48.82
-52.32
-55.07
-56.17
-54.91
-51.18
-45.56
-38.97
-32.24
-25.82
-19.71
-13.72
-7.84
-2.42
1.79
3.93
3.27
-0.50
-7.19
-16.19
-26.65
-37.70
-48.61
-58.90
-68.40
-77.11
-85.17
-92.67
-99.58
-105.63
-110.33
-112.90
-112.38
-107.74
-98.16
-83.32
-63.80
-41.11
-17.58
4.26
22.38
35.78
44.63
50.05
53.48
56.16
58.80
61.58
64.29
66.48
67.64
67.34
65.43
62.24
58.61
55.64
54.22
54.53
55.91
57.04
56.50
53.30
47.20
38.57
28.07
16.36
4.07
-8.00
-18.66
-26.33
-29.48
-27.23
-19.87
-8.98
3.06
13.87
21.93
26.96
29.69
31.30
32.62
33.81
34.45
34.03
32.33
29.77
27.05
24.87
23.47
22.57
21.54
19.80
17.01
13.14
8.33
2.69
-3.69
-10.50
-17.02
-22.18
-24.74
-23.98
-20.09
-14.32
-8.64
-4.98
-4.35
-6.39
-9.46
-11.35
-10.34
-5.96
0.87
8.34
14.77
19.41
22.65
25.53
28.92
32.86
36.57
39.05
39.74
38.89
37.22
35.18
32.41
27.74
19.80
7.90
-7.39
-24.44
-41.10
-55.45
-66.30
-73.20
-76.13
-75.37
-71.53
-65.56
-58.77
-52.46
-47.34
-43.28
-39.37
-34.50
-28.10
-20.50
-12.77
-6.21
-1.70
0.58
0.96
-0.18
-2.71
-6.76
-12.46
-19.66
-27.87
-36.41
-44.69
-52.26
-58.71
-63.45
-65.65
-64.40
-59.03
-49.36
-35.83
-19.37
-1.22
17.27
34.63
49.42
60.30
66.36
67.47
64.42
58.81
52.51
47.20
43.83
42.52
42.66
43.36
43.79
43.44
42.24
40.30
37.82
34.86
31.26
26.83
21.34
14.73
7.14
-1.05
-9.30
-17.02
-23.60
-28.57
-31.49
-32.09
-30.35
-26.53
-21.15
-14.87
-8.31
-1.76
4.85
11.83
19.41
27.53
35.71
43.21
49.28
53.54
56.10
57.40
57.97
58.00
57.24
54.98
50.39
42.92
32.52
19.77
5.65
-8.74
-22.32
-34.18
-43.42
-49.30
-51.29
-49.30
-43.80
-35.66
-26.01
-15.87
-6.08
2.78
10.29
16.20
20.55
23.60
25.95
28.20
30.77
33.66
36.48
38.61
39.48
38.74
36.35
32.49
27.44
21.45
14.57
6.65
-2.63
-13.50
-26.01
-39.80
-54.11
-67.94
-80.32
-90.59
-98.63
-104.76
-109.52
-113.31
-116.11
-117.38
-116.30
-112.11
-104.50
-93.74
-80.49
-65.57
-49.68
-33.34
-17.08
-1.64
12.03
22.95
30.40
34.29
35.11
33.71
30.86
26.87
21.55
14.45
5.32
-5.60
-17.46
-29.02
-39.04
-46.51
-50.86
-51.83
-49.47
-44.06
-36.15
-26.46
-15.75
-4.62
6.62
17.82
28.75
38.91
47.41
53.32
55.96
55.19
51.45
45.52
38.16
29.92
21.12
11.99
2.88
-5.71
-13.34
-19.81
-25.45
-31.03
-37.40
-45.06
-53.78
-62.46
-69.43
-72.94
-71.58
-64.76
-52.78
-36.78
-18.46
0.36
18.12
33.79
46.94
57.63
66.09
72.54
77.14
80.09
81.82
83.03
84.54
86.91
90.19
93.90
97.27
99.57
100.33
99.36
96.54
91.60
84.14
73.89
60.93
46.04
30.53
15.96
3.69
-5.44
-11.12
-13.37
-12.36
-8.27
-1.41
7.66
18.10
28.89
39.10
48.07
55.54
61.52
65.97
68.75
69.46
67.74
63.58
57.49
50.56
44.01
38.85
35.39
33.29
31.68
29.63
26.49
21.98
16.17
9.21
1.35
-7.09
-15.54
-23.20
-29.19
-32.82
-33.87
-32.70
-30.03
-26.62
-22.92
-18.92
-14.22
-8.47
-1.69
5.49
11.98
16.58
18.41
17.24
13.43
7.74
1.01
-6.08
-13.06
-19.54
-25.15
-29.56
-32.68
-34.81
-36.64
-39.03
-42.73
-48.06
-54.80
-62.33
-69.82
-76.54
-81.94
-85.60
-87.20
-86.35
-82.59
-75.59
-65.21
-51.58
-35.17
-16.70
2.95
22.70
41.43
58.01
71.50
81.32
87.41
90.16
90.26
88.50
85.46
81.53
76.98
72.07
67.22
62.83
59.23
56.30
53.50
49.93
44.69
37.35
28.13
18.00
8.14
-0.47
-7.45
-13.02
-17.64
-21.58
-24.74
-26.83
-27.79
-28.08
-28.72
-30.74
-34.65
-40.01
-45.63
-50.08
-52.48
-52.90
-52.26
-51.87
-52.72
-55.12
-58.71
-62.79
-66.74
-70.27
-73.47
-76.53
-79.51
-82.21
-84.21
-85.03
-84.44
-82.47
-79.49
-76.00
-72.39
-68.78
-64.98
-60.63
-55.40
-49.24
-42.27
-34.66
-26.42
-17.30
-6.98
4.61
16.98
28.98
39.06
45.83
48.54
47.36
43.32
37.88
32.45
27.98
24.78
22.67
21.25
20.17
19.30
18.68
18.38
18.28
18.03
17.19
15.43
12.75
9.44
5.94
2.60
-0.43
-3.17
-5.58
-7.42
-8.28
-7.76
-5.72
-2.46
1.38
5.10
8.17
10.44
12.00
13.05
13.64
13.64
12.80
11.00
8.35
5.38
2.91
1.84
2.88
6.16
11.18
16.81
21.66
24.41
24.23
20.95
14.91
6.84
-2.32
-11.50
-19.59
-25.52
-28.53
-28.29
-24.95
-19.00
-11.08
-1.80
8.25
18.45
27.96
35.80
41.02
43.02
41.80
38.06
32.95
27.81
23.79
21.66
21.70
23.73
27.25
31.50
35.71
39.08
40.95
40.87
38.62
34.34
28.39
21.34
13.73
6.03
-1.48
-8.58
-15.00
-20.32
-23.94
-25.24
-23.84
-19.82
-14.01
-7.85
-3.13
-1.39
-3.43
-8.98
-16.74
-24.81
-31.36
-35.10
-35.54
-32.89
-27.80
-21.11
-13.72
-6.55
-0.57
3.34
4.57
2.95
-1.22
-7.24
-14.21
-21.16
-27.08
-30.86
-31.55
-28.60
-22.22
-13.58
-4.43
3.50
9.10
12.22
13.46
13.54
12.79
11.07
8.07
3.82
-0.96
-4.96
-6.82
-5.67
-1.45
5.15
13.09
21.40
29.44
36.89
43.61
49.42
53.94
56.51
56.30
52.51
44.54
32.34
16.54
-1.62
-20.49
-38.62
-55.10
-69.74
-82.93
-95.06
-106.13
-115.53
-122.32
-125.68
-125.38
-121.77
-115.58
-107.46
-97.69
-86.27
-73.19
-58.79
-43.82
-29.32
-16.27
-5.36
3.08
9.02
12.53
13.71
12.63
9.37
4.15
-2.60
-10.14
-17.44
-23.27
-26.46
-26.22
-22.46
-15.84
-7.63
0.77
8.27
14.40
19.31
23.48
27.36
31.18
34.91
38.52
42.14
46.11
50.86
56.56
63.03
69.69
75.83
80.78
84.04
85.20
83.84
79.58
72.16
61.71
48.93
34.85
20.63
7.13
-5.30
-16.73
-27.50
-37.91
-48.10
-57.93
-66.97
-74.53
-79.76
-81.87
-80.34
-75.09
-66.56
-55.42
-42.42
-28.08
-12.81
3.06
19.03
34.47
48.70
61.27
72.00
80.97
88.21
93.55
96.54
96.61
93.39
86.91
77.73
66.75
54.97
43.19
32.03
21.92
13.19
6.03
0.50
-3.58
-6.48
-8.39
-9.17
-8.29
-5.12
0.65
8.70
17.98
27.08
34.77
40.46
44.31
47.01
49.34
51.73
54.19
56.38
57.91
58.54
58.19
56.87
54.47
50.72
45.29
37.97
28.93
18.70
8.12
-2.11
-11.73
-21.08
-31.09
-42.68
-56.28
-71.30
-86.10
-98.48
-106.43
-108.89
-106.06
-99.27
-90.35
-80.87
-71.69
-62.94
-54.37
-45.75
-37.18
-29.16
-22.26
-16.94
-13.31
-11.22
-10.42
-10.81
-12.59
-16.21
-22.13
-30.53
-41.05
-52.80
-64.48
-74.63
-81.84
-84.88
-82.87
-75.43
-63.00
-46.91
-29.18
-11.94
3.37
16.39
27.92
39.23
51.39
64.57
78.02
90.51
100.93
108.67
113.70
116.19
116.23
113.73
108.56
100.83
91.14
80.37
69.46
58.93
48.59
37.61
24.93
9.76
-7.91
-27.38
-47.39
-66.56
-83.60
-97.40
-106.97
-111.49
-110.51
-104.28
-93.88
-81.09
-67.91
-55.99
-46.30
-39.02
-33.83
-30.17
-27.55
-25.56
-23.86
-22.28
-20.75
-19.48
-18.84
-19.33
-21.25
-24.54
-28.70
-32.93
-36.32
-38.07
-37.69
-35.03
-30.25
-23.72
-15.82
-6.86
3.00
13.64
24.93
36.50
47.83
58.24
67.12
74.06
79.00
82.17
84.08
85.27
86.15
86.87
87.26
86.94
85.48
82.54
78.04
72.03
64.69
56.11
46.28
35.14
22.69
9.09
-5.39
-20.46
-35.93
-51.70
-67.60
-83.13
-97.37
-109.04
-116.78
-119.70
-117.62
-111.24
-101.89
-91.05
-79.93
-69.21
-59.09
-49.55
-40.67
-32.73
-26.24
-21.63
-19.05
-18.17
-18.32
-18.77
-19.14
-19.60
-20.79
-23.47
-28.05
-34.34
-41.59
-48.88
-55.34
-60.25
-62.93
-62.55
-58.25
-49.44
-36.18
-19.34
-0.33
19.40
38.69
56.80
73.19
87.27
98.44
106.29
110.93
113.07
113.71
113.69
113.29
112.20
109.85
105.72
99.69
92.04
83.22
73.65
63.50
52.76
41.22
28.68
15.10
0.74
-13.77
-27.50
-39.40
-48.67
-54.95
-58.32
-59.08
-57.37
-53.02
-45.76
-35.53
-22.92
-9.16
4.17
15.70
24.72
31.28
35.86
38.95
40.58
40.43
38.06
33.24
26.27
17.83
8.69
-0.54
-9.71
-19.06
-29.03
-40.03
-52.14
-64.97
-77.60
-88.59
-96.28
-99.01
-95.58
-85.58
-69.47
-48.53
-24.45
1.05
26.48
50.66
72.56
91.21
105.79
115.75
121.05
122.19
120.07
115.62
109.56
102.26
93.87
84.55
74.60
64.49
54.77
45.88
37.99
30.95
24.38
17.86
11.15
4.40
-1.88
-6.89
-9.94
-10.70
-9.39
-6.66
-3.30
0.15
3.56
7.22
11.48
16.43
21.69
26.44
29.80
31.17
30.53
28.38
25.54
22.74
20.35
18.36
16.48
14.34
11.65
8.23
3.90
-1.59
-8.48
-16.91
-26.63
-36.94
-46.81
-55.13
-61.06
-64.21
-64.65
-62.69
-58.75
-53.27
-46.67
-39.37
-31.71
-23.79
-15.55
-6.85
2.24
11.17
19.00
24.67
27.52
27.57
25.54
22.52
19.53
17.25
15.87
15.25
15.06
14.82
13.96
11.92
8.33
3.25
-2.84
-9.05
-14.44
-18.32
-20.51
-21.28
-21.22
-21.01
-21.17
-21.99
-23.42
-25.08
-26.35
-26.53
-25.19
-22.31
-18.40
-14.32
-10.87
-8.48
-7.10
-6.33
-5.73
-5.12
-4.57
-4.32
-4.57
-5.37
-6.70
-8.62
-11.25
-14.72
-18.97
-23.64
-28.07
-31.56
-33.52
-33.68
-32.08
-28.97
-24.66
-19.45
-13.64
-7.48
-1.24
5.02
11.50
18.59
26.71
35.94
45.82
55.36
63.33
68.66
70.88
70.22
67.51
63.80
59.94
56.35
52.95
49.38
45.15
39.93
33.74
26.91
20.08
13.96
9.12
5.81
3.93
2.96
2.18
0.81
-1.82
-6.11
-12.11
-19.54
-27.80
-36.12
-43.63
-49.48
-53.02
-53.94
-52.46
-49.36
-45.82
-43.06
-41.98
-42.91
-45.60
-49.41
-53.68
-57.89
-61.70
-64.90
-67.30
-68.76
-69.18
-68.62
-67.31
-65.42
-63.11
-60.43
-57.44
-54.24
-50.99
-47.77
-44.49
-40.85
-36.43
-30.86
-24.03
-16.03
-7.11
2.53
12.79
23.58
34.65
45.46
55.10
62.60
67.23
68.80
67.78
65.06
61.57
57.99
54.56
51.27
48.02
44.92
42.18
40.02
38.50
37.43
36.51
35.47
34.26
32.96
31.56
29.76
26.98
22.56
16.12
7.88
-1.42
-10.77
-19.33
-26.61
-32.54
-37.21
-40.62
-42.65
-43.19
-42.34
-40.59
-38.72
-37.49
-37.46
-38.84
-41.56
-45.36
-49.89
-54.63
-58.87
-61.72
-62.34
-60.13
-55.09
-47.77
-39.21
-30.67
-23.22
-17.56
-13.88
-11.90
-11.10
-10.90
-10.87
-10.84
-10.85
-11.09
-11.67
-12.50
-13.17
-13.05
-11.45
-7.88
-2.30
4.81
12.51
19.65
25.09
28.07
28.27
25.89
21.68
16.71
12.31
9.78
10.09
13.63
20.03
28.29
37.14
45.44
52.51
58.26
62.91
66.77
69.91
72.20
73.44
73.58
72.82
71.56
70.18
68.85
67.51
66.00
64.17
62.02
59.70
57.44
55.45
53.82
52.43
50.92
48.76
45.41
40.53
34.15
26.70
18.86
11.31
4.56
-1.11
-5.52
-8.45
-9.48
-8.12
-4.16
2.17
10.06
18.39
26.15
32.71
37.98
42.19
45.51
47.88
48.92
48.16
45.39
40.78
34.80
27.97
20.58
12.64
3.98
-5.49
-15.58
-25.87
-35.91
-45.26
-53.62
-60.66
-65.98
-69.08
-69.59
-67.45
-63.07
-57.27
-51.05
-45.19
-40.13
-35.97
-32.67
-30.21
-28.66
-28.11
-28.50
-29.63
-31.19
-32.82
-34.31
-35.63
-36.89
-38.23
-39.72
-41.26
-42.69
-43.84
-44.68
-45.33
-46.15
-47.41
-49.28
-51.58
-53.79
-55.21
-55.11
-52.98
-48.73
-42.63
-35.29
-27.46
-19.90
-13.20
-7.73
-3.71
-1.13
0.06
0.03
-1.02
-2.79
-5.00
-7.36
-9.68
-11.87
-13.95
-15.94
-17.82
-19.47
-20.75
-21.65
-22.29
-23.05
-24.32
-26.41
-29.21
-32.20
-34.44
-34.89
-32.79
-27.92
-20.71
-12.07
-3.08
5.37
12.73
18.73
23.28
26.28
27.66
27.43
25.86
23.42
20.73
18.34
16.56
15.40
14.65
14.07
13.51
12.94
12.45
12.10
11.91
11.75
11.40
10.63
9.37
7.84
6.56
6.28
7.68
11.05
16.16
22.32
28.65
34.44
39.35
43.40
46.79
49.60
51.63
52.47
51.71
49.14
44.96
39.68
34.03
28.70
24.17
20.49
17.33
14.14
10.28
5.39
-0.56
-7.19
-13.84
-19.73
-24.15
-26.58
-26.68
-24.30
-19.48
-12.36
-3.19
7.65
19.71
32.51
45.59
58.55
71.04
82.69
93.08
101.77
108.44
112.89
115.09
114.96
112.23
106.45
97.23
84.61
69.34
52.86
36.90
22.93
11.67
3.02
-3.66
-9.02
-13.24
-15.94
-16.41
-13.96
-8.44
-0.31
9.52
20.06
30.63
41.04
51.51
62.40
73.96
86.14
98.70
111.12
122.64
132.18
138.23
139.16
133.47
120.30
99.67
72.40
39.74
2.95
-36.84
-78.40
-119.91
-158.87
-192.28
-217.36
-232.21
-236.16
-229.90
-215.09
-193.88
-168.38
-140.47
-111.83
-84.19
-59.38
-39.37
-26.00
-20.55
-23.36
-33.60
-49.56
-69.20
-90.88
-113.74
-137.58
-162.27
-187.16
-210.72
-230.79
-245.05
-251.62
-249.45
-238.52
-219.85
-195.15
-166.44
-135.75
-104.93
-75.69
-49.51
-27.62
-10.72
1.19
9.03
14.35
18.87
23.88
29.93
36.85
44.21
51.60
58.86
65.92
72.68
78.92
84.55
89.73
94.78
100.01
105.32
110.18
113.79
115.40
114.71
111.97
107.79
102.83
97.59
92.23
86.77
81.13
75.21
68.96
62.36
55.51
48.72
42.46
37.16
33.00
29.52
25.78
20.63
13.26
3.71
-7.15
-17.98
-27.61
-35.62
-42.40
-48.86
-55.81
-63.55
-71.80
-79.95
-87.57
-94.59
-101.26
-107.87
-114.47
-120.75
-126.12
-129.95
-131.80
-131.53
-129.23
-125.14
-119.33
-111.71
-102.06
-90.27
-76.62
-61.87
-47.13
-33.46
-21.54
-11.42
-2.77
4.90
11.78
17.75
22.47
25.66
27.40
28.04
27.97
27.26
25.54
22.14
16.48
8.51
-1.03
-10.72
-18.90
-24.20
-26.06
-24.73
-20.95
-15.56
-9.04
-1.50
7.08
16.59
26.56
36.23
44.75
51.42
55.77
57.62
57.13
54.93
52.17
50.39
51.14
55.41
63.21
73.50
84.52
94.39
101.53
104.94
104.11
98.85
89.32
76.20
60.79
45.02
31.06
20.80
15.28
14.52
17.58
23.05
29.44
35.66
41.14
45.79
49.86
53.72
57.73
62.10
66.81
71.60
76.00
79.29
80.76
79.83
76.26
70.27
62.48
53.68
44.60
35.70
27.06
18.57
10.05
1.53
-6.70
-14.12
-20.22
-24.59
-27.14
-28.07
-27.82
-26.86
-25.63
-24.34
-23.06
-21.68
-20.03
-17.90
-15.16
-11.86
-8.40
-5.51
-4.12
-4.99
-8.38
-13.83
-20.31
-26.50
-31.33
-34.23
-35.23
-34.85
-33.78
-32.63
-31.78
-31.28
-31.04
-31.04
-31.48
-32.87
-35.55
-39.21
-42.42
-42.83
-37.88
-26.06
-7.81
14.27
36.29
54.46
66.47
71.96
72.14
68.78
63.27
56.22
47.77
38.11
27.93
18.37
10.52
4.86
1.10
-1.71
-4.61
-8.15
-12.20
-16.12
-19.19
-21.04
-21.83
-22.21
-23.00
-24.92
-28.32
-33.01
-38.28
-43.07
-46.16
-46.53
-43.65
-37.54
-28.74
-18.02
-6.20
6.05
18.24
29.92
40.66
49.97
57.34
62.36
64.89
65.01
63.08
59.60
55.13
50.14
45.01
39.95
35.07
30.40
25.92
21.55
17.10
12.40
7.26
1.67
-4.31
-10.45
-16.40
-21.68
-25.74
-28.02
-28.17
-26.10
-22.10
-16.74
-10.69
-4.60
1.08
6.11
10.34
13.67
15.89
16.83
16.36
14.54
11.60
7.94
4.05
0.43
-2.49
-4.40
-5.18
-4.84
-3.50
-1.39
1.16
3.78
6.07
7.62
8.18
7.61
5.99
3.57
0.72
-2.08
-4.35
-5.65
-5.65
-4.15
-1.24
2.82
7.56
12.45
17.02
20.94
24.03
26.15
27.27
27.31
26.32
24.42
21.89
19.10
16.40
14.07
12.24
10.99
10.31
10.23
10.84
12.16
14.16
16.61
19.15
21.32
22.70
22.98
22.20
20.64
18.87
17.52
17.10
17.91
19.95
23.02
26.71
30.57
34.01
36.45
37.33
36.36
33.57
29.44
24.69
20.06
16.04
12.72
9.75
6.66
2.96
-1.55
-6.84
-12.62
-18.56
-24.40
-29.97
-35.24
-40.30
-45.28
-50.30
-55.44
-60.61
-65.61
-70.08
-73.63
-75.83
-76.33
-74.91
-71.56
-66.53
-60.34
-53.68
-47.19
-41.32
-36.25
-31.84
-27.86
-24.08
-20.43
-17.01
-13.96
-11.41
-9.30
-7.42
-5.46
-3.09
-0.11
3.52
7.69
12.22
16.86
21.32
25.26
28.25
29.98
30.31
29.53
28.28
27.44
27.81
29.79
33.34
37.97
43.03
47.88
52.02
55.11
56.88
57.16
55.85
53.07
49.18
44.68
40.09
35.79
31.89
28.31
24.78
21.01
16.85
12.38
7.88
3.81
0.54
-1.78
-3.39
-4.88
-6.99
-10.30
-15.02
-20.83
-26.98
-32.53
-36.69
-38.99
-39.35
-38.00
-35.37
-31.89
-28.03
-24.21
-20.83
-18.32
-16.99
-16.98
-18.21
-20.41
-23.27
-26.50
-29.94
-33.53
-37.25
-41.13
-45.15
-49.31
-53.61
-58.09
-62.84
-67.93
-73.38
-79.05
-84.55
-89.16
-91.91
-91.82
-88.17
-80.78
-70.05
-56.92
-42.55
-28.08
-14.45
-2.34
7.78
15.64
21.11
24.25
25.33
24.71
22.78
19.84
16.01
11.34
5.87
-0.19
-6.45
-12.42
-17.66
-21.95
-25.34
-28.08
-30.47
-32.62
-34.37
-35.26
-34.70
-32.20
-27.57
-21.02
-13.08
-4.46
4.16
12.22
19.36
25.27
29.69
32.33
32.90
31.30
27.61
22.21
15.72
8.91
2.59
-2.53
-5.96
-7.52
-7.41
-6.25
-4.93
-4.40
-5.41
-8.24
-12.56
-17.52
-21.99
-24.91
-25.62
-24.00
-20.45
-15.68
-10.47
-5.54
-1.44
1.42
2.80
2.60
0.95
-1.80
-5.17
-8.67
-12.01
-15.04
-17.77
-20.18
-22.14
-23.48
-24.03
-23.81
-22.99
-21.89
-20.78
-19.86
-19.16
-18.63
-18.14
-17.51
-16.46
-14.63
-11.73
-7.59
-2.28
3.87
10.43
16.98
23.19
28.90
34.02
38.50
42.17
44.73
45.81
45.04
42.30
37.80
32.16
26.25
20.94
16.77
13.85
11.87
10.30
8.60
6.34
3.27
-0.65
-5.17
-9.70
-13.33
-15.01
-13.84
-9.49
-2.26
6.95
16.95
26.60
35.08
41.97
47.16
50.66
52.55
52.84
51.60
48.95
45.16
40.62
35.82
31.26
27.38
24.57
23.04
22.81
23.59
24.83
25.76
25.65
24.02
20.85
16.73
12.71
10.02
9.72
12.35
17.70
24.89
32.66
39.71
45.07
48.32
49.58
49.33
48.22
46.79
45.43
44.28
43.31
42.34
41.17
39.59
37.50
34.92
31.99
28.97
26.21
24.09
22.95
23.00
24.21
26.26
28.64
30.88
32.72
34.32
36.18
38.83
42.58
47.26
52.23
56.65
59.79
61.24
61.00
59.40
56.94
54.22
51.86
50.43
50.31
51.49
53.50
55.61
57.07
57.44
56.66
54.95
52.54
49.55
45.95
41.80
37.37
33.22
29.94
27.89
27.01
26.94
27.25
27.63
27.88
27.83
27.17
25.59
23.06
19.99
17.30
16.03
16.80
19.53
23.32
26.88
29.07
29.28
27.47
23.93
18.96
12.57
4.51
-5.57
-17.96
-32.82
-50.06
-69.23
-89.27
-108.52
-124.79
-135.95
-140.59
-138.60
-131.30
-120.97
-110.09
-100.55
-93.26
-88.32
-85.47
-84.54
-85.61
-88.79
-94.07
-101.14
-109.58
-119.19
-130.17
-142.96
-157.82
-174.45
-191.77
-208.33
-222.74
-234.23
-242.77
-248.70
-252.21
-252.86
-249.48
-240.65
-225.30
-203.35
-175.86
-144.80
-112.50
-81.14
-52.39
-27.35
-6.70
9.15
19.98
25.78
27.05
24.91
21.07
17.65
16.71
19.77
27.38
39.12
53.62
69.17
84.11
97.20
107.79
115.79
121.51
125.57
128.78
131.94
135.78
140.65
146.53
152.96
159.22
164.44
167.85
168.87
167.17
162.78
156.03
147.57
138.23
128.81
119.81
111.37
103.22
94.92
86.05
76.45
66.33
56.17
46.44
37.36
28.78
20.22
11.29
2.01
-7.02
-14.70
-19.93
-22.04
-21.04
-17.55
-12.46
-6.47
0.07
7.07
14.48
21.98
28.94
34.62
38.45
40.21
40.12
38.66
36.33
33.46
30.10
26.14
21.42
15.86
9.54
2.74
-4.15
-10.65
-16.19
-20.17
-22.00
-21.16
-17.40
-10.80
-1.76
9.06
20.98
33.30
45.37
56.53
66.17
73.88
79.58
83.60
86.47
88.75
90.67
92.07
92.55
91.69
89.46
86.28
82.98
80.52
79.66
80.68
83.26
86.51
89.20
90.20
88.80
84.95
79.27
72.73
66.36
61.04
57.22
54.98
54.00
53.58
52.81
50.78
46.97
41.44
34.94
28.63
23.55
20.21
18.29
16.85
14.83
11.59
7.16
2.17
-2.50
-6.15
-8.54
-9.87
-10.56
-11.11
-11.87
-13.09
-14.90
-17.38
-20.48
-23.99
-27.41
-30.00
-31.02
-29.93
-26.66
-21.80
-16.44
-11.91
-9.34
-9.37
-11.83
-15.98
-20.70
-25.00
-28.41
-31.07
-33.64
-36.92
-41.55
-47.78
-55.52
-64.50
-74.38
-84.79
-95.11
-104.36
-111.23
-114.52
-113.51
-108.42
-100.33
-90.85
-81.50
-73.35
-66.90
-62.28
-59.49
-58.67
-59.93
-63.13
-67.80
-73.07
-78.04
-82.21
-85.72
-89.40
-94.38
-101.65
-111.56
-123.69
-137.12
-150.77
-163.83
-175.90
-186.89
-196.80
-205.64
-213.32
-219.77
-224.96
-228.84
-231.30
-232.08
-230.94
-227.88
-223.44
-218.79
-215.48
-215.11
-218.67
-226.02
-235.70
-245.24
-251.83
-253.15
-248.11
-237.13
-221.82
-204.36
-186.74
-170.20
-155.18
-141.58
-129.16
-117.72
-107.13
-97.15
-87.42
-77.46
-66.85
-55.36
-42.87
-29.17
-13.73
4.27
25.64
50.64
78.45
107.11
133.87
155.98
171.58
180.16
182.56
180.45
175.68
169.70
163.34
156.92
150.54
144.23
138.00
131.72
125.05
117.52
108.75
98.76
88.10
77.80
69.07
62.85
59.59
59.11
60.70
63.47
66.54
69.35
71.56
73.03
73.67
73.39
72.16
70.07
67.34
64.23
60.92
57.50
53.87
49.95
45.76
41.56
37.74
34.67
32.52
31.10
30.00
28.67
26.76
24.21
21.39
18.97
17.77
18.58
21.91
27.88
36.12
45.84
56.04
65.68
73.92
80.33
84.81
87.46
88.45
87.79
85.46
81.45
75.90
69.07
61.31
52.92
44.11
35.13
26.35
18.31
11.48
6.07
1.81
-1.96
-5.98
-10.80
-16.46
-22.71
-29.26
-36.11
-43.70
-52.51
-62.77
-73.96
-84.91
-94.12
-100.49
-103.73
-104.47
-103.85
-102.81
-101.59
-99.71
-96.45
-91.49
-85.34
-79.04
-73.53
-68.86
-63.96
-57.14
-47.07
-33.68
-18.39
-3.46
9.15
18.72
26.12
33.32
42.42
54.82
70.78
89.47
109.46
129.20
147.37
163.10
175.99
186.16
194.17
200.75
206.56
211.76
215.90
218.06
217.29
213.07
205.59
195.75
184.83
174.20
165.13
158.74
155.96
157.20
161.83
167.86
172.26
171.80
164.40
149.93
130.36
108.92
88.68
71.35
56.91
43.94
30.60
15.41
-2.44
-23.46
-48.50
-78.68
-114.63
-155.06
-195.87
-230.48
-251.82
-255.10
-240.08
-211.38
-176.76
-144.10
-118.80
-102.85
-95.78
-96.42
-104.18
-119.02
-140.36
-165.91
-191.38
-211.58
-222.09
-220.87
-208.84
-189.43
-167.00
-145.34
-126.66
-111.55
-99.68
-90.70
-84.83
-82.85
-85.49
-92.76
-103.49
-115.50
-126.20
-133.33
-135.71
-133.23
-126.66
-117.09
-105.58
-92.92
-79.67
-66.38
-53.63
-42.02
-31.89
-23.14
-15.11
-6.85
2.69
14.16
27.50
41.70
54.84
64.61
69.03
67.36
60.42
50.48
40.27
32.00
26.53
23.42
21.50
19.74
17.83
16.04
14.71
13.75
12.44
9.86
5.43
-0.69
-7.68
-14.31
-19.34
-21.86
-21.21
-17.13
-9.90
-0.07
11.80
25.21
39.72
54.86
69.99
84.54
97.72
108.63
116.58
121.49
123.98
125.13
125.94
126.91
128.46
130.27
131.51
131.62
131.04
131.23
133.77
139.32
147.01
156.18
164.92
170.67
171.85
169.44
166.79
167.96
175.78
190.75
214.28
244.59
276.43
303.32
320.57
326.65
322.26
308.94
288.27
266.62
247.13
227.20
200.80
163.73
117.10
67.58
25.93
4.02
17.52
71.88
157.42
253.24
337.34
394.88
421.07
420.14
358.94
232.97
70.92
-84.06
-205.02
-287.66
-338.36
-364.41
-371.64
-365.72
-346.00
-314.94
-279.69
-248.74
-226.38
-211.32
-199.54
-187.45
-174.08
-155.14
-129.93
-102.49
-79.20
-63.72
-55.73
-52.44
-50.59
-48.66
-42.74
-31.42
-16.89
-3.37
5.97
10.35
10.95
10.01
8.51
8.97
12.28
16.81
18.96
14.72
0.30
-28.29
-66.12
-110.34
-155.97
-197.01
-227.77
-244.40
-245.90
-234.44
-214.84
-193.02
-175.40
-165.62
-164.07
-168.23
-173.92
-176.91
-174.42
-165.75
-151.90
-135.64
-119.02
-102.81
-86.67
-69.99
-53.11
-37.54
-25.54
-18.82
-18.19
-22.50
-29.21
-35.61
-39.90
-41.79
-42.23
-42.51
-43.36
-44.66
-45.33
-44.10
-40.49
-35.33
-30.53
-28.16
-29.44
-34.11
-40.71
-47.24
-52.19
-55.22
-57.15
-59.45
-63.26
-68.71
-74.72
-79.32
-80.46
-76.79
-68.23
-55.94
-41.87
-27.89
-15.01
-2.88
10.11
26.17
47.28
74.48
107.34
144.09
182.02
218.15
250.17
277.17
300.12
321.62
344.86
372.03
402.97
434.80
462.69
481.51
487.50
479.18
457.12
423.17
379.34
327.35
268.54
203.84
133.69
57.95
-23.50
-109.78
-197.47
-279.74
-347.29
-391.40
-407.75
-399.07
-374.79
-347.63
-328.96
-324.87
-334.64
-352.37
-370.47
-383.11
-388.02
-386.06
-379.20
-369.71
-359.74
-351.31
-346.30
-346.07
-350.97
-359.44
-367.77
-369.31
-358.13
-331.49
-290.67
-239.83
-184.23
-128.70
-76.41
-28.44
18.74
68.18
120.32
173.25
224.89
274.01
319.76
361.19
397.15
431.32
465.99
500.09
530.07
552.90
567.18
572.42
568.70
556.93
545.07
539.16
539.64
541.88
540.60
532.38
515.89
491.68
424.94
306.14
156.99
15.13
-94.65
-168.56
-214.22
-241.03
-256.05
-263.83
-261.03
-246.40
-223.92
-200.99
-183.39
-172.88
-168.30
-167.38
-168.42
-165.51
-155.74
-140.81
-125.42
-113.20
-104.97
-99.56
-94.35
-88.67
-79.17
-64.44
-46.14
-27.97
-12.93
-2.23
4.01
6.70
5.96
3.74
1.18
-1.99
-6.91
-14.40
-24.44
-36.37
-46.43
-54.81
-60.98
-64.58
-65.82
-65.27
-63.52
-60.95
-57.75
-54.07
-50.58
-47.34
-44.31
-41.43
-38.68
-36.00
-33.41
-30.92
-28.52
-26.59
-25.08
-23.82
-22.72
-21.68
-20.72
-19.79
-19.01
-18.46
-18.38
-18.70
-19.23
-19.82
-20.36
-20.84
-21.34
-22.14
-23.43
-25.39
-27.87
-30.55
-33.05
-35.18
-36.97
-38.60
-40.65
-43.47
-47.12
-51.15
-54.79
-57.15
-57.57
-56.74
-54.36
-51.11
-47.71
-44.54
-41.40
-37.72
-32.97
-26.99
-20.18
-13.40
-7.86
-4.63
-4.50
-7.93
-14.94
-24.60
-34.60
-41.51
-41.60
-32.67
-15.22
7.32
29.67
46.83
55.96
57.16
52.75
45.99
39.12
32.98
27.33
21.71
16.09
10.90
6.51
2.65
-1.17
-5.90
-12.33
-20.52
-29.69
-38.62
-46.17
-51.89
-56.32
-60.14
-64.37
-69.69
-76.18
-83.29
-90.40
-97.08
-103.44
-110.03
-116.83
-123.77
-130.44
-136.12
-139.84
-140.53
-136.86
-126.96
-113.18
-96.27
-77.28
-57.78
-39.70
-24.98
-15.00
-10.16
-9.97
-13.53
-19.27
-26.05
-33.04
-39.19
-43.01
-42.65
-36.33
-23.10
-3.31
21.99
50.87
81.24
111.52
140.84
169.08
196.56
223.71
250.95
279.13
309.13
341.57
376.25
411.42
443.69
468.46
481.21
479.10
462.14
432.85
395.07
352.40
307.33
261.61
216.77
174.78
137.89
107.93
85.27
68.54
55.32
43.40
32.34
22.71
14.79
7.75
-0.41
-11.89
-28.10
-48.94
-72.86
-96.44
-116.88
-133.01
-144.94
-152.84
-156.41
-156.02
-154.44
-157.27
-169.20
-192.93
-226.96
-264.56
-294.98
-307.38
-295.65
-261.02
-210.79
-151.55
-88.51
-25.14
35.92
92.10
140.30
176.91
198.83
188.52
139.40
60.07
-29.47
-110.48
-173.87
-219.61
-251.96
-275.46
-292.75
-301.90
-299.86
-285.92
-262.94
-235.79
-209.07
-185.40
-164.64
-146.61
-127.21
-102.65
-71.91
-37.25
-2.42
29.25
56.21
78.91
99.32
121.91
151.03
189.65
238.72
297.10
361.17
424.46
478.26
513.67
525.44
513.13
481.04
436.29
386.17
335.85
287.48
240.87
195.14
150.42
107.57
67.33
29.43
-7.58
-45.39
-84.70
-124.23
-160.82
-190.20
-209.04
-216.40
-214.09
-205.74
-195.01
-184.02
-172.98
-161.22
-148.60
-136.72
-128.74
-127.95
-136.09
-152.32
-173.50
-195.55
-214.86
-229.11
-237.32
-239.29
-234.99
-224.47
-207.90
-185.83
-159.37
-129.79
-98.18
-65.16
-31.10
3.32
36.65
66.81
92.02
111.81
127.55
141.87
157.08
173.42
187.98
195.25
189.47
167.77
132.34
90.39
51.57
24.21
12.15
13.86
23.96
36.18
46.08
52.37
56.35
59.81
63.34
65.49
63.51
55.09
39.88
19.79
-1.78
-21.47
-37.33
-49.42
-59.32
-69.03
-79.78
-91.74
-104.41
-117.36
-130.70
-145.06
-160.87
-177.72
-194.25
-208.53
-218.65
-223.31
-222.03
-215.04
-203.16
-187.52
-169.47
-150.41
-131.59
-113.97
-97.98
-83.50
-69.93
-56.50
-42.71
-28.63
-15.00
-2.99
6.43
12.95
17.13
20.16
23.20
26.86
30.85
34.30
36.25
36.19
34.14
30.36
24.87
16.97
5.53
-10.32
-30.32
-52.50
-73.49
-89.48
-97.56
-96.65
-87.74
-73.20
-55.68
-37.25
-19.04
-1.56
14.72
28.94
39.92
46.58
48.59
46.60
42.13
36.98
32.57
29.58
27.83
26.66
25.33
23.38
20.60
16.86
11.98
5.60
-2.50
-12.15
-22.54
-32.25
-39.60
-43.10
-41.93
-36.17
-26.79
-15.30
-3.36
7.62
16.74
23.68
28.59
31.93
34.36
36.43
38.49
40.68
43.03
45.59
48.54
52.06
56.37
61.64
67.82
74.56
81.29
87.39
92.45
96.49
100.06
104.17
110.44
120.38
134.89
153.93
176.43
200.60
224.27
245.35
262.26
274.89
283.79
289.70
293.15
294.36
293.26
289.55
282.76
272.30
259.31
244.86
229.58
213.50
196.64
179.57
163.46
149.64
139.00
134.03
135.68
142.66
151.64
158.77
161.29
158.36
150.77
140.15
131.49
128.52
132.29
140.89
151.00
159.82
166.11
169.95
152.43
103.92
26.65
-64.87
-152.27
-222.94
-272.68
-303.15
-318.45
-322.96
-317.19
-301.63
-278.16
-250.30
-222.14
-196.82
-175.87
-159.52
-147.25
-135.72
-122.38
-106.67
-89.86
-74.09
-61.09
-51.51
-45.08
-40.93
-36.50
-29.64
-20.09
-9.01
1.50
9.40
13.26
12.39
6.46
-4.21
-15.90
-27.37
-38.70
-50.84
-64.86
-81.31
-100.10
-120.72
-142.32
-164.21
-186.55
-209.29
-231.87
-253.06
-271.20
-284.82
-293.03
-295.37
-291.36
-280.69
-262.62
-236.70
-203.57
-165.27
-124.71
-84.77
-46.81
-9.86
28.57
71.33
119.55
171.31
221.93
265.56
297.32
315.19
320.38
316.02
305.80
292.43
277.10
259.97
240.99
220.55
199.48
178.59
158.20
137.97
117.31
95.60
72.47
47.84
21.65
-6.26
-35.84
-66.81
-98.01
-127.34
-151.91
-168.72
-175.63
-172.13
-159.55
-140.98
-120.83
-103.96
-94.81
-96.25
-108.52
-128.85
-152.06
-172.12
-184.24
-186.52
-180.42
-169.85
-159.50
-153.02
-152.18
-156.76
-165.00
-174.30
-181.71
-184.06
-178.53
-163.88
-140.47
-110.52
-77.33
-43.72
-10.72
22.89
59.92
102.94
152.48
206.12
258.83
304.54
338.04
356.51
360.14
351.65
335.02
314.09
291.52
268.43
244.78
220.17
194.50
168.29
142.46
117.75
94.21
71.16
47.44
21.97
-5.75
-35.87
-68.13
-101.71
-135.11
-165.86
-190.84
-207.26
-213.64
-210.54
-200.40
-186.63
-172.43
-160.06
-150.63
-144.49
-141.67
-142.02
-145.06
-149.84
-154.91
-158.76
-160.37
-159.66
-157.45
-155.18
-154.25
-155.35
-158.33
-162.15
-165.41
-166.93
-166.21
-163.57
-159.94
-156.46
-153.91
-152.50
-151.79
-150.93
-149.06
-145.56
-140.27
-133.47
-125.78
-117.91
-110.48
-103.67
-96.98
-89.27
-78.89
-64.15
-43.95
-18.16
12.36
45.99
80.84
115.17
147.45
176.25
199.94
216.77
225.09
223.87
213.12
193.98
168.64
140.04
111.56
86.58
67.78
56.15
50.46
47.15
41.74
30.37
11.50
-13.34
-40.07
-63.40
-78.70
-83.56
-78.65
-67.72
-56.58
-51.27
-56.01
-71.48
-94.45
-118.94
-138.61
-149.03
-149.07
-140.39
-125.85
-107.64
-86.16
-60.01
-26.95
14.50
63.53
116.09
165.13
202.21
220.07
214.85
187.91
145.31
96.01
49.17
11.51
-14.12
-28.64
-35.62
-39.46
-43.76
-50.41
-59.34
-69.06
-77.49
-82.81
-83.98
-80.83
-73.79
-63.79
-52.16
-40.59
-30.77
-23.99
-20.67
-20.10
-20.75
-20.83
-18.71
-13.48
-4.90
6.73
20.79
36.62
53.78
72.25
92.40
114.65
138.72
163.21
185.62
203.22
214.30
219.00
219.11
216.79
213.07
206.86
195.70
177.45
152.16
122.94
95.18
74.61
65.17
67.90
80.72
99.55
119.65
136.85
148.90
156.04
161.16
168.55
181.61
200.54
221.46
237.88
243.85
236.89
218.88
194.64
169.42
146.86
128.70
115.75
108.73
108.09
112.83
119.56
122.97
117.85
101.57
75.35
43.55
11.57
-16.45
-38.48
-54.51
-65.69
-73.73
-80.79
-88.99
-99.95
-113.78
-128.73
-141.43
-148.04
-145.70
-133.82
-114.19
-90.18
-65.43
-42.75
-23.65
-8.72
1.69
6.90
6.00
-1.73
-16.31
-36.85
-61.76
-89.21
-117.47
-144.97
-170.16
-191.38
-207.08
-216.22
-218.79
-216.10
-210.40
-204.29
-199.79
-197.90
-198.32
-199.96
-201.46
-201.71
-200.11
-196.28
-190.01
-181.03
-169.19
-154.57
-137.62
-119.05
-99.55
-79.64
-59.75
-40.51
-22.91
-8.42
1.46
5.74
4.25
-2.34
-13.03
-26.87
-43.19
-61.45
-80.70
-99.47
-115.83
-128.15
-135.65
-138.96
-139.80
-140.29
-141.97
-145.20
-149.07
-151.80
-151.47
-146.64
-136.70
-121.83
-102.75
-80.42
-55.70
-29.40
-2.24
25.05
51.84
77.45
101.36
123.04
142.01
157.77
169.95
178.39
183.37
185.55
185.82
185.00
183.65
181.93
179.65
176.44
171.98
166.20
159.45
152.54
146.50
142.30
140.38
140.35
141.05
141.07
139.18
134.79
127.86
118.65
107.42
94.44
80.32
66.27
54.03
45.34
41.26
41.73
45.50
50.80
56.05
60.47
64.13
67.59
71.33
75.31
78.88
81.08
81.11
78.76
74.53
69.47
64.79
61.34
59.24
57.73
55.39
50.60
42.07
29.41
13.21
-5.24
-24.39
-42.86
-59.63
-73.97
-85.39
-93.59
-98.71
-101.40
-102.70
-103.59
-104.42
-104.57
-102.81
-97.96
-89.64
-78.60
-66.25
-53.98
-42.41
-31.22
-19.57
-6.85
6.83
20.31
31.79
39.36
41.78
38.98
32.40
24.64
18.74
17.41
22.17
33.14
49.36
69.24
90.87
112.05
130.33
143.57
150.97
153.71
154.79
157.62
163.84
171.92
177.21
174.01
158.38
130.13
92.89
52.27
13.37
-21.04
-50.75
-77.11
-101.47
-124.37
-145.40
-163.74
-178.84
-190.69
-200.09
-207.80
-214.05
-218.15
-218.39
-212.51
-198.60
-176.07
-146.26
-112.30
-77.80
-45.61
-16.84
9.20
34.44
61.17
91.10
124.90
162.01
201.17
240.30
276.35
305.48
323.88
329.43
321.92
303.10
275.52
242.40
206.22
168.10
127.74
84.51
39.43
-5.61
-48.40
-88.03
-122.82
-150.83
-169.88
-178.03
-173.78
-155.25
-123.12
-81.38
-37.98
0.99
32.24
55.95
74.21
89.76
106.54
125.98
146.46
162.42
171.06
172.31
168.49
162.19
142.49
104.51
50.89
3.61
-32.44
-58.18
-79.57
-98.96
-117.64
-135.96
-151.26
-161.01
-164.15
-163.72
-161.78
-159.96
-159.09
-159.90
-162.60
-165.23
-166.22
-165.08
-163.73
-162.10
-158.76
-151.77
-140.48
-125.88
-109.29
-92.84
-78.81
-69.92
-66.69
-68.28
-73.34
-81.04
-90.99
-102.46
-114.76
-127.14
-139.11
-149.09
-154.90
-154.46
-146.90
-133.29
-116.48
-100.61
-89.94
-87.56
-94.17
-107.99
-125.42
-142.29
-154.94
-161.06
-160.01
-152.66
-140.93
-127.12
-113.22
-100.54
-89.67
-80.56
-72.80
-65.70
-58.45
-50.09
-39.65
-26.28
-9.28
11.55
35.80
62.21
88.62
112.42
131.34
144.22
151.45
154.58
155.54
155.73
155.64
155.17
154.23
153.23
152.91
153.76
155.42
156.62
155.87
152.37
146.78
141.22
138.41
140.50
147.87
158.81
170.00
177.65
178.80
172.11
158.03
138.22
114.73
89.55
64.40
41.00
20.99
5.73
-4.20
-9.50
-11.88
-13.40
-15.51
-18.45
-21.27
-22.56
-21.30
-17.48
-12.05
-6.30
-1.13
3.44
8.13
13.95
21.59
31.17
42.20
53.89
65.42
76.28
86.50
96.72
108.03
121.52
137.58
155.44
173.10
187.76
196.90
199.17
194.97
186.29
176.05
167.21
162.10
161.75
166.06
173.81
182.89
190.67
194.70
193.39
186.57
175.41
161.75
147.53
134.43
123.56
115.42
110.04
107.08
105.90
105.57
104.47
101.12
94.70
85.21
73.18
59.16
43.48
26.19
7.05
-15.58
-42.72
-73.82
-106.80
-139.02
-168.31
-193.52
-214.44
-231.68
-249.14
-269.95
-294.77
-321.88
-348.94
-374.86
-399.97
-425.37
-451.87
-483.89
-523.41
-567.99
-611.44
-646.94
-669.71
-677.70
-671.01
-651.37
-627.66
-608.25
-597.40
-594.38
-595.88
-598.65
-600.18
-598.58
-553.89
-447.09
-287.75
-109.29
53.61
182.20
274.08
335.69
375.82
400.53
412.06
411.28
401.31
387.87
376.02
367.47
360.87
354.06
344.37
327.31
301.56
270.38
240.09
216.35
201.56
194.88
193.70
195.13
194.14
187.06
173.26
155.19
136.43
119.74
106.21
95.44
86.20
76.16
64.13
51.43
41.57
38.41
44.16
58.32
78.00
99.00
116.91
128.63
133.06
130.80
123.03
110.78
94.76
75.76
55.09
34.71
16.80
3.18
-5.26
-8.95
-9.53
-9.46
-11.34
-17.15
-27.86
-43.32
-62.46
-83.59
-104.41
-121.85
-132.13
-131.49
-117.85
-92.57
-60.78
-30.02
-7.35
3.27
2.13
-7.15
-19.72
-31.89
-42.14
-50.31
-56.07
-58.05
-54.50
-44.78
-30.51
-14.69
-1.01
7.58
9.87
6.82
0.98
-4.83
-8.89
-11.03
-11.19
-9.57
-6.58
-2.96
0.52
3.12
4.06
2.81
-0.38
-2.50
0.63
12.42
33.59
62.07
93.81
123.96
148.21
155.26
137.96
97.39
43.04
-13.77
-65.47
-109.16
-144.59
-172.33
-192.99
-205.82
-211.03
-209.62
-204.11
-197.35
-191.51
-187.61
-185.66
-185.15
-184.28
-181.36
-175.41
-168.45
-162.30
-158.04
-155.76
-154.82
-154.30
-152.74
-149.07
-143.09
-135.69
-127.97
-120.84
-114.77
-109.85
-105.90
-102.35
-98.66
-94.52
-90.10
-85.57
-81.12
-76.80
-72.55
-68.29
-63.74
-58.60
-52.69
-46.04
-38.77
-31.13
-23.47
-16.08
-9.12
-2.50
4.09
11.10
18.91
27.67
37.21
47.04
56.62
65.60
74.06
82.53
91.83
102.70
115.52
130.09
145.61
161.06
175.78
189.56
202.78
216.39
231.79
250.46
273.22
299.44
326.79
351.60
369.55
377.05
372.49
356.89
333.56
306.77
279.98
254.90
231.54
208.26
182.87
153.98
122.09
89.95
61.70
41.12
30.38
30.36
38.68
50.26
58.83
59.25
49.70
32.37
12.30
-3.66
-6.47
9.13
42.68
88.20
136.93
180.92
215.34
238.17
251.26
262.96
280.25
306.36
340.05
377.58
415.45
451.87
485.33
516.66
552.74
597.16
647.98
697.86
737.83
761.94
769.74
763.88
708.29
585.05
398.41
176.68
-43.54
-236.00
-390.69
-499.18
-574.19
-623.60
-644.26
-633.54
-594.31
-536.71
-474.64
-421.80
-387.47
-376.21
-383.81
-397.07
-403.60
-396.43
-375.48
-345.28
-311.38
-277.52
-246.55
-218.00
-187.60
-152.06
-110.63
-66.39
-25.37
5.73
22.61
24.59
16.83
8.50
7.24
15.72
30.86
46.50
57.38
61.96
61.91
60.59
60.29
60.27
57.77
49.81
35.51
16.43
-4.07
-22.95
-38.27
-50.02
-59.95
-70.35
-83.13
-98.84
-116.53
-134.11
-149.26
-160.38
-167.13
-170.35
-171.44
-171.74
-172.10
-172.76
-173.58
-174.30
-174.65
-174.41
-173.33
-171.02
-167.13
-161.33
-153.49
-143.71
-132.41
-120.14
-107.44
-94.54
-81.13
-66.39
-49.36
-29.42
-6.97
16.51
38.65
56.79
68.69
73.10
69.77
59.32
42.87
21.76
-2.57
-28.55
-54.53
-78.89
-100.27
-117.95
-132.01
-143.21
-152.80
-162.04
-171.89
-182.68
-194.01
-204.80
-213.50
-218.53
-218.78
-214.09
-205.54
-195.28
-185.82
-179.10
-175.64
-174.17
-172.19
-166.93
-156.66
-141.35
-122.92
-104.64
-90.32
-83.31
-86.05
-99.57
-122.89
-152.73
-183.55
-208.85
-222.95
-223.20
-210.56
-188.81
-162.91
-136.28
-109.86
-82.12
-51.27
-17.27
17.24
47.67
69.28
78.94
76.41
64.08
46.89
30.03
17.56
11.68
12.75
19.81
30.84
43.92
57.18
71.06
86.19
103.39
123.63
148.18
178.91
217.22
264.18
318.11
376.35
432.76
479.10
508.57
519.34
516.40
509.35
510.02
526.28
561.86
611.79
664.47
706.30
727.20
724.21
700.31
664.02
603.46
515.71
406.82
291.20
184.48
97.03
37.99
0.66
-22.94
-40.61
-56.12
-72.62
-91.70
-113.74
-138.12
-163.55
-189.91
-216.71
-244.65
-272.56
-299.81
-326.45
-353.07
-380.07
-406.78
-431.88
-452.03
-463.97
-464.04
-451.01
-426.58
-394.85
-360.54
-327.32
-297.56
-271.49
-248.69
-228.18
-209.55
-192.84
-178.18
-165.14
-152.71
-140.04
-126.65
-113.15
-100.93
-91.72
-86.69
-85.90
-88.09
-91.27
-93.52
-93.45
-90.58
-85.02
-77.09
-66.90
-54.36
-39.42
-22.40
-4.17
14.02
30.74
44.95
56.42
66.04
75.70
87.78
104.25
125.72
151.06
177.56
202.00
221.90
236.43
246.57
254.43
262.09
270.71
280.16
289.19
296.10
299.05
296.35
286.43
268.18
241.29
206.72
166.79
124.68
83.58
45.86
12.71
-15.72
-39.87
-60.23
-77.22
-91.29
-103.12
-113.60
-123.64
-133.78
-144.07
-154.10
-163.46
-172.05
-180.34
-189.20
-199.50
-211.68
-225.33
-239.33
-252.08
-261.99
-267.88
-269.14
-265.71
-257.79
-245.53
-228.90
-207.83
-182.51
-153.82
-123.47
-93.85
-67.48
-46.26
-30.97
-21.12
-15.20
-11.21
-7.33
-2.28
4.44
12.63
21.59
30.35
37.93
43.52
46.65
47.12
45.08
40.87
35.00
28.07
20.76
13.72
7.41
1.97
-2.79
-7.31
-11.98
-16.84
-21.48
-25.13
-26.92
-26.28
-23.07
-17.60
-10.39
-1.96
7.28
16.98
26.68
35.77
43.57
49.53
53.42
55.45
56.16
56.36
56.90
58.54
61.71
66.39
71.99
77.47
81.60
83.40
82.54
79.44
75.15
70.84
67.39
65.10
63.64
62.37
60.54
57.58
53.23
47.50
40.74
33.61
27.04
22.06
19.60
20.20
23.84
29.89
37.32
44.96
51.81
57.20
60.75
62.32
61.88
59.51
55.41
49.85
43.25
36.09
28.80
21.74
15.14
9.14
3.80
-0.80
-4.57
-7.47
-9.49
-10.76
-11.55
-12.17
-13.03
-14.43
-16.61
-19.61
-23.23
-27.09
-30.59
-33.06
-33.84
-32.49
-28.87
-23.21
-15.99
-7.88
0.46
8.45
15.65
21.77
26.69
30.37
32.80
34.02
34.21
33.75
33.20
33.10
33.86
35.69
38.46
41.83
45.39
48.92
52.46
56.28
60.57
65.23
70.00
74.18
76.86
77.37
75.64
72.52
69.52
68.42
70.60
77.36
88.85
104.04
121.09
138.09
153.80
168.02
181.47
195.29
211.90
232.59
256.81
282.00
304.51
320.87
329.07
329.09
322.87
315.92
313.23
317.42
327.70
340.35
350.52
353.68
346.91
329.31
304.90
278.18
252.49
229.16
208.06
188.90
171.81
157.49
128.28
75.50
0.39
-85.35
-166.29
-231.32
-276.38
-302.87
-314.36
-314.85
-305.03
-285.96
-260.08
-230.86
-201.73
-175.00
-152.05
-133.37
-119.20
-107.68
-97.70
-89.46
-84.54
-85.51
-91.89
-103.60
-120.45
-142.26
-167.37
-194.25
-221.53
-248.26
-273.74
-297.35
-319.15
-339.63
-359.72
-380.28
-402.92
-429.83
-462.79
-501.54
-542.31
-578.21
-600.67
-602.41
-580.35
-537.15
-480.09
-418.06
-358.30
-304.35
-256.55
-213.40
-172.96
-134.18
-96.61
-59.72
-22.47
16.03
55.75
94.77
129.75
157.94
177.58
188.80
193.73
196.06
199.61
207.67
221.50
240.28
262.92
287.27
310.76
331.09
347.12
358.70
367.28
374.60
382.21
392.80
407.35
424.25
439.44
447.92
445.20
430.05
404.18
361.52
303.80
239.09
178.33
129.31
96.66
74.69
57.85
42.28
25.42
7.77
-10.05
-28.22
-47.72
-69.60
-94.75
-122.77
-153.30
-186.59
-221.92
-258.81
-296.25
-331.84
-361.43
-380.52
-385.49
-376.31
-356.88
-332.59
-308.68
-288.14
-270.82
-254.11
-235.04
-211.53
-183.67
-153.28
-122.36
-92.80
-66.23
-44.33
-28.73
-20.79
-20.73
-27.41
-38.34
-50.08
-59.45
-64.56
-65.20
-62.59
-58.64
-55.02
-52.67
-51.76
-52.00
-53.19
-55.37
-58.87
-63.72
-69.20
-73.60
-74.51
-69.42
-56.58
-35.49
-7.13
26.27
61.79
96.36
127.40
153.36
173.84
189.60
202.09
212.92
223.27
233.68
244.08
254.28
264.36
274.78
286.23
299.02
312.51
324.76
332.68
332.76
322.23
300.01
267.34
227.32
183.93
140.60
99.16
59.34
19.26
-23.53
-70.86
-122.83
-177.36
-230.56
-277.62
-314.08
-337.19
-346.70
-345.12
-337.09
-328.07
-322.74
-323.59
-330.20
-339.60
-347.52
-350.06
-345.10
-332.84
-315.37
-295.56
-275.99
-258.24
-242.96
-230.21
-219.81
-211.39
-204.26
-197.24
-188.85
-177.80
-163.51
-146.53
-128.34
-110.89
-95.94
-84.49
-76.59
-71.56
-68.38
-66.23
-64.76
-64.08
-64.56
-66.54
-70.00
-74.50
-79.25
-83.35
-85.97
-86.64
-85.22
-81.84
-76.84
-70.60
-63.46
-55.61
-47.12
-37.93
-27.89
-16.92
-5.03
7.54
20.35
32.89
44.69
55.53
65.59
75.35
85.45
96.45
108.58
121.66
135.27
148.94
162.40
175.73
189.30
203.69
219.62
237.89
259.15
283.53
310.05
336.31
358.79
373.75
378.56
372.67
357.77
337.07
313.96
290.97
269.36
249.43
231.18
214.78
200.51
188.46
178.20
168.81
159.27
148.92
137.72
126.20
115.20
105.40
97.12
90.20
84.14
78.36
72.47
66.38
60.38
54.88
50.23
46.56
43.69
41.29
39.06
36.81
34.55
32.38
30.38
28.55
26.85
25.16
23.43
21.67
19.96
18.40
17.07
16.05
15.36
14.95
14.70
14.44
14.06
13.49
12.78
12.01
11.27
10.63
10.13
9.82
9.76
9.95
10.32
10.64
10.61
9.98
8.63
6.68
4.40
2.10
0.04
-1.64
-2.88
-3.71
-4.18
-4.38
-4.40
-4.33
-4.23
-4.17
-4.15
-4.20
-4.29
-4.39
-4.47
-4.48
-4.44
-4.40
-4.48
-4.81
-5.44
-6.28
-7.13
-7.83
-8.22
-8.34
-8.30
-8.23
-8.20
-8.14
-7.92
-7.38
-6.50
-5.36
-4.14
-3.04
-2.18
-1.62
-1.42
-1.66
-2.42
-3.75
-5.58
-7.70
-9.83
-11.74
-13.30
-14.54
-15.56
-16.43
-17.16
-17.68
-17.89
-17.82
-17.55
-17.27
-17.08
-16.99
-16.86
-16.52
-15.79
-14.66
-13.21
-11.61
-10.05
-8.64
-7.42
-6.36
-5.39
-4.47
-3.63
-2.87
-2.21
-1.62
-1.06
-0.49
0.10
0.69
1.23
1.67
2.01
2.22
2.29
2.15
1.69
0.85
-0.40
-1.96
-3.67
-5.32
-6.77
-7.95
-8.86
-9.53
-10.00
-10.32
-10.56
-10.78
-11.12
-11.67
-12.48
-13.48
-14.58
-15.57
-16.33
-16.85
-17.22
-17.64
-18.29
-19.28
-20.60
-22.13
-23.71
-25.23
-26.67
-28.11
-29.68
-31.43
-33.34
-35.29
-37.05
-38.40
-39.22
-39.56
-39.74
-40.33
-41.95
-45.09
-49.75
-55.24
-60.11
-62.38
-60.14
-52.23
-38.73
-21.06
-1.37
18.28
36.71
54.00
71.17
89.53
109.82
131.86
154.27
174.66
190.01
197.15
193.43
177.54
150.31
115.15
77.72
44.35
20.07
7.18
4.77
9.51
17.14
23.79
26.71
24.59
16.88
3.56
-14.72
-36.38
-58.80
-78.99
-94.47
-104.16
-107.65
-105.83
-100.28
-92.58
-83.66
-73.49
-61.31
-46.27
-28.08
-5.39
21.88
52.30
83.11
111.27
134.84
153.59
168.75
182.21
198.71
221.27
249.83
281.02
309.72
331.42
343.75
346.41
340.74
333.02
328.75
330.60
337.35
344.85
348.30
344.22
330.98
287.70
206.05
91.28
-38.20
-160.21
-259.74
-332.65
-382.94
-416.42
-443.02
-465.03
-480.75
-486.51
-479.08
-457.03
-420.96
-371.81
-314.45
-254.96
-199.01
-151.69
-114.95
-87.43
-66.16
-48.14
-29.78
-11.65
5.11
21.70
39.43
58.94
79.91
99.47
115.89
127.98
133.84
131.28
119.35
98.61
71.51
41.92
13.65
-10.59
-30.27
-47.23
-63.96
-82.16
-102.34
-123.91
-145.47
-165.03
-179.95
-187.47
-185.74
-174.36
-154.98
-130.83
-105.87
-83.41
-65.37
-51.86
-41.81
-33.79
-26.37
-18.55
-9.78
0.10
10.88
21.99
32.63
41.78
48.22
50.80
48.60
41.20
28.82
12.27
-7.12
-27.56
-46.90
-62.57
-71.82
-72.39
-63.41
-46.17
-24.19
-1.99
16.78
31.11
43.07
56.63
75.40
100.32
128.58
154.27
170.41
171.49
155.32
123.58
80.95
33.62
-12.49
-53.12
-86.17
-111.54
-130.33
-143.73
-152.18
-155.20
-151.80
-141.36
-124.32
-102.24
-77.14
-50.71
-23.62
4.31
33.18
62.10
88.77
109.99
122.98
126.49
121.38
110.20
96.20
82.13
69.42
57.96
46.39
32.91
16.07
-4.58
-28.33
-53.70
-79.12
-103.74
-127.61
-151.58
-176.79
-204.22
-234.23
-266.04
-297.43
-324.82
-344.10
-352.20
-348.59
-335.83
-318.53
-301.07
-285.35
-270.03
-251.61
-226.90
-195.10
-158.38
-120.55
-84.85
-52.29
-21.53
9.55
41.87
73.76
101.25
119.57
125.37
118.31
101.29
79.35
57.73
39.96
27.02
17.75
10.25
3.54
-1.75
-3.78
-0.68
8.03
20.95
35.26
47.98
57.28
63.13
66.86
70.14
74.00
78.27
82.01
84.18
84.33
82.67
79.78
76.14
71.81
66.51
59.80
51.47
41.75
31.27
20.95
11.82
4.80
0.59
-0.58
1.00
4.59
9.18
13.81
17.84
21.06
23.58
25.62
27.31
28.56
29.21
29.07
28.08
26.28
23.75
20.62
17.05
13.32
9.79
6.87
4.83
3.66
3.09
2.67
2.04
1.03
-0.15
-1.17
-1.66
-1.33
-0.01
2.39
5.91
10.65
16.73
24.43
33.86
44.93
57.25
70.18
82.87
94.41
104.09
111.57
117.36
122.11
126.58
131.41
137.02
143.43
150.23
156.75
162.40
167.26
171.43
175.08
178.43
181.67
184.80
187.46
188.87
187.90
183.55
174.21
158.27
134.98
105.07
70.76
35.07
0.88
-32.36
-62.94
-88.44
-106.85
-117.54
-121.19
-118.99
-112.30
-102.76
-93.47
-85.94
-81.59
-81.41
-85.40
-92.74
-102.20
-113.15
-126.19
-141.03
-158.24
-179.34
-206.33
-240.93
-283.59
-332.36
-382.25
-425.74
-454.47
-462.00
-446.49
-411.40
-364.01
-312.57
-263.57
-220.30
-183.23
-151.28
-123.38
-99.13
-78.44
-60.78
-44.94
-29.32
-12.74
5.03
23.25
40.55
55.79
68.67
80.04
91.63
105.22
121.75
140.58
159.45
175.16
184.79
186.92
182.12
172.68
161.53
151.11
142.52
135.46
128.71
120.91
111.34
100.05
87.89
76.07
65.84
58.17
53.54
51.95
53.01
56.09
60.47
65.41
70.15
73.97
76.25
76.66
75.25
72.44
68.86
65.10
61.52
58.18
54.95
51.64
48.28
45.06
42.22
39.95
38.17
36.57
34.76
32.46
29.61
26.45
23.29
20.36
17.69
15.04
12.05
8.38
3.89
-1.26
-6.68
-11.80
-16.00
-18.72
-19.56
-18.35
-15.09
-9.97
-3.21
4.93
14.15
24.04
34.00
43.20
50.72
55.88
58.44
58.77
57.76
56.44
55.71
56.02
57.24
58.87
60.15
60.24
58.39
54.08
47.24
38.38
28.60
19.30
11.65
6.10
2.07
-1.92
-7.74
-16.98
-30.34
-47.42
-66.80
-86.42
-104.10
-117.95
-126.72
-129.85
-127.47
-120.24
-109.19
-95.53
-80.49
-65.24
-50.79
-37.81
-26.60
-17.05
-8.67
-0.89
6.78
14.47
21.96
28.79
34.46
38.72
41.70
43.79
45.43
46.81
47.75
47.80
46.46
43.56
39.38
34.64
30.15
26.50
23.87
21.97
20.36
18.66
16.68
14.47
12.21
10.13
8.43
7.29
6.87
7.30
8.63
10.80
13.62
16.87
20.29
23.65
26.70
29.23
31.10
32.32
33.06
33.57
34.02
34.43
34.68
34.58
34.06
33.21
32.24
31.37
30.66
30.00
29.11
27.75
25.81
23.39
20.75
18.20
15.98
14.17
12.64
11.10
9.23
6.76
3.55
-0.35
-4.72
-9.20
-13.27
-16.30
-17.61
-16.73
-13.58
-8.69
-3.14
1.82
5.28
7.02
7.64
8.21
9.69
12.45
16.12
19.79
22.59
24.07
24.42
24.26
24.26
24.81
25.85
27.04
27.98
28.49
28.64
28.73
29.09
29.96
31.46
33.58
36.24
39.25
42.26
44.78
46.19
45.99
43.94
40.16
35.09
29.27
23.16
16.99
10.82
4.72
-1.09
-6.19
-10.10
-12.46
-13.17
-12.42
-10.52
-7.70
-4.03
0.59
6.25
12.86
20.05
27.31
34.13
40.23
45.57
50.29
54.51
58.19
61.19
63.33
64.56
65.09
65.25
65.33
65.42
65.43
65.11
64.30
62.97
61.24
59.22
56.93
54.23
50.96
47.13
42.98
39.05
35.92
34.08
33.76
34.90
37.24
40.41
44.05
47.82
51.40
54.48
56.73
57.83
57.49
55.57
52.06
47.18
41.24
34.64
27.78
20.97
14.51
8.63
3.62
-0.25
-2.68
-3.41
-2.21
1.03
6.39
13.86
23.43
35.03
48.51
63.72
80.43
98.53
117.96
138.72
160.60
182.91
204.20
222.36
235.00
240.19
237.11
226.44
210.15
190.92
171.39
153.53
138.49
126.68
118.07
112.43
109.31
108.04
107.66
107.05
105.17
101.36
95.46
87.74
78.68
68.72
58.00
46.46
33.90
20.27
5.77
-9.09
-23.74
-37.70
-50.82
-63.37
-75.87
-88.87
-102.68
-117.28
-132.33
-147.36
-161.99
-176.03
-189.65
-203.27
-217.69
-233.82
-252.40
-273.36
-295.35
-315.61
-330.63
-337.21
-333.72
-320.69
-300.53
-276.56
-251.94
-229.06
-209.53
-194.48
-184.68
-180.31
-180.43
-182.90
-184.75
-183.21
-176.77
-165.69
-151.72
-137.23
-124.30
-114.14
-107.06
-102.88
-101.28
-101.96
-104.48
-108.18
-112.13
-115.68
-118.93
-122.93
-129.34
-139.37
-152.68
-167.04
-178.91
-184.90
-183.12
-173.80
-158.81
-140.74
-121.92
-104.05
-88.47
-76.46
-69.41
-68.43
-73.90
-85.20
-100.88
-119.00
-137.69
-155.37
-170.91
-183.85
-194.40
-203.42
-212.22
-222.27
-235.03
-251.82
-273.81
-301.69
-335.25
-373.13
-412.56
-449.66
-480.15
-500.39
-508.46
-504.67
-491.20
-471.07
-446.69
-418.88
-386.80
-348.75
-303.61
-251.88
-195.78
-138.50
-82.79
-29.88
20.74
70.71
121.86
175.55
232.25
291.08
349.54
403.47
447.53
476.82
488.83
484.88
470.30
452.91
440.46
438.00
446.03
460.49
474.43
