1500454506.00
64.000000
-0.00
-0.00
-0.00
-0.00
-0.00
-0.00
-0.00
-0.00
-0.00
-0.00
0.00
0.01
0.01
-0.00
-0.03
-0.05
-0.05
0.00
0.13
0.36
0.66
1.01
1.37
1.72
2.06
2.40
2.79
3.24
3.80
4.42
5.06
5.66
6.20
6.68
7.15
7.68
8.31
9.14
10.09
11.04
11.88
12.56
13.14
13.76
14.65
15.97
17.92
20.32
22.90
25.37
27.57
29.57
31.70
34.37
37.88
42.58
48.10
53.90
59.44
64.38
68.83
73.30
78.47
84.83
92.86
102.01
111.47
120.37
128.21
135.06
141.58
149.08
156.19
165.08
176.25
189.77
204.50
217.64
225.00
222.02
205.30
173.78
129.60
76.40
18.46
-40.84
-99.63
-157.30
-213.75
-268.77
-321.90
-372.17
-419.10
-462.11
-500.33
-532.22
-555.71
-568.58
-569.15
-556.96
-532.68
-498.31
-456.29
-408.83
-357.61
-303.82
-248.39
-192.52
-137.84
-86.25
-39.89
-0.58
30.46
53.12
68.87
80.86
93.43
110.79
135.35
166.30
199.71
229.97
252.22
264.31
267.39
264.73
259.71
254.22
248.21
240.53
230.12
216.68
200.78
183.26
164.89
146.32
128.15
111.04
95.58
82.00
70.12
59.63
50.47
42.88
37.07
32.80
28.94
24.10
17.42
9.34
1.56
-3.77
-5.22
-2.99
1.12
4.61
5.38
2.50
-3.85
-12.91
-23.85
-35.79
-47.41
-56.72
-61.49
-60.28
-53.60
-44.02
-35.11
-29.56
-27.52
-26.40
-22.33
-12.62
2.45
19.42
33.27
39.92
38.19
30.12
19.75
10.99
5.90
4.32
4.60
4.96
4.52
3.61
3.13
3.71
5.14
6.40
6.40
4.70
2.00
-0.23
-0.59
1.32
4.63
7.58
8.62
7.18
3.98
0.56
-1.55
-1.62
0.14
2.79
5.27
6.80
7.07
6.04
3.86
0.81
-2.60
-5.76
-8.09
-9.45
-10.14
-10.68
-11.36
-11.92
-11.54
-9.46
-5.56
-0.61
3.86
6.33
6.15
3.97
1.29
-0.57
-1.21
-1.17
-1.20
-1.47
-1.48
-0.73
0.35
0.29
-2.56
-8.72
-16.67
-23.29
-25.44
-21.72
-13.41
-3.93
3.00
5.49
4.37
2.62
3.50
8.52
16.71
25.07
30.15
30.04
25.27
18.47
12.81
10.43
11.36
13.76
15.19
14.04
10.41
5.79
2.02
0.27
0.55
1.81
2.48
1.04
-3.62
-12.00
-23.91
-38.10
-52.11
-62.56
-66.13
-60.87
-47.32
-28.56
-8.97
7.50
18.81
25.14
27.94
28.59
27.50
24.34
18.97
12.30
6.27
2.83
2.79
5.16
7.68
8.03
5.03
-1.05
-8.42
-14.77
-18.30
-18.36
-15.47
-11.00
-6.53
-3.28
-1.62
-1.12
-0.87
-0.06
1.52
3.39
4.69
4.72
3.41
1.36
-0.57
-1.78
-2.35
-2.91
-4.22
-6.61
-9.73
-12.67
-14.38
-14.08
-11.52
-6.97
-1.03
5.56
12.04
17.75
22.16
25.05
26.51
26.90
26.75
26.50
26.40
26.43
26.51
26.51
26.42
26.24
25.95
25.42
24.42
22.79
20.47
17.58
14.29
10.75
6.96
2.78
-1.96
-7.25
-12.87
-18.46
-23.60
-28.00
-31.54
-34.20
-36.03
-37.06
-37.29
-36.82
-35.87
-34.81
-34.08
-34.01
-34.78
-36.35
-38.45
-40.80
-43.10
-45.25
-47.40
-49.88
-52.98
-56.69
-60.61
-63.98
-65.94
-65.75
-62.95
-57.33
-48.97
-38.20
-25.66
-12.33
0.65
12.28
21.96
29.69
35.94
41.32
46.21
50.63
54.29
56.84
58.17
58.41
57.87
56.84
55.44
53.56
51.04
47.86
44.17
40.30
36.52
32.94
29.38
25.55
21.20
16.33
11.16
6.05
1.34
-2.75
-6.11
-8.68
-10.40
-11.24
-11.29
-10.77
-9.99
-9.19
-8.47
-7.79
-6.97
-5.80
-4.22
-2.23
0.11
2.73
5.65
8.91
12.52
16.36
20.21
23.77
26.74
28.91
30.12
30.26
29.29
27.28
24.49
21.28
17.95
14.54
10.70
5.84
-0.41
-7.84
-15.41
-21.54
-24.69
-24.09
-20.02
-13.73
-6.83
-0.64
4.10
7.26
8.94
9.24
8.09
5.45
1.51
-3.23
-8.11
-12.51
-16.18
-19.15
-21.66
-23.81
-25.45
-26.27
-26.01
-24.65
-22.62
-20.63
-19.42
-19.52
-21.01
-23.50
-26.21
-28.13
-28.30
-26.08
-21.42
-14.91
-7.73
-1.21
3.56
6.13
6.72
6.00
4.66
3.10
1.38
-0.57
-2.63
-4.31
-4.96
-3.99
-1.30
2.59
6.75
10.12
11.85
11.55
9.26
5.53
1.49
-1.40
-1.74
1.36
7.83
16.57
25.75
33.52
38.59
40.97
41.48
41.21
40.85
40.54
40.01
38.96
37.23
34.77
31.79
28.30
24.22
19.68
15.31
12.29
12.00
15.57
21.04
26.22
29.03
28.37
24.26
17.36
8.57
-0.92
-9.76
-16.69
-20.60
-21.37
-20.03
-18.29
-17.71
-18.94
-21.37
-23.64
-24.53
-23.40
-20.64
-17.25
-14.20
-11.81
-9.66
-7.08
-3.87
-0.64
1.54
1.62
-0.76
-4.92
-9.46
-12.89
-14.21
-13.39
-11.34
-9.41
-8.85
-10.30
-13.45
-17.23
-20.28
-21.38
-20.01
-16.53
-11.91
-7.28
-3.59
-1.23
-0.03
0.50
0.91
1.42
1.88
1.93
1.47
0.64
-0.08
-0.05
1.11
3.43
6.35
9.04
10.71
11.10
10.20
8.27
5.76
3.03
0.44
-1.94
-4.05
-6.08
-8.10
-10.83
-15.56
-22.16
-30.72
-40.31
-48.83
-53.39
-54.06
-50.34
-43.19
-34.74
-27.03
-21.15
-15.91
-10.13
-2.57
7.45
20.00
34.06
48.11
60.75
70.96
77.95
80.99
79.93
75.27
68.15
59.40
49.15
35.59
18.74
0.23
-17.55
-32.18
-41.81
-45.28
-42.73
-35.54
-25.87
-16.19
-9.34
-8.22
-14.81
-28.96
-47.63
-65.50
-76.60
-76.69
-65.01
-45.07
-23.09
-5.27
4.78
7.10
4.50
0.67
-1.64
-1.37
0.80
3.40
5.10
5.35
4.67
3.90
3.75
4.45
5.56
6.11
5.15
2.31
-1.65
-5.08
-6.19
-4.03
0.72
6.28
10.88
13.82
15.41
16.34
16.57
15.06
10.71
4.06
-1.71
-1.98
7.79
27.39
50.65
68.16
72.24
61.08
39.55
16.26
-1.10
-9.21
-9.77
-7.11
-5.04
-5.03
-6.32
-7.21
-6.50
-4.25
-1.52
0.41
0.92
0.40
0.05
0.92
3.43
6.99
10.32
12.10
11.55
8.88
5.27
2.41
1.43
2.61
5.17
7.62
8.40
6.49
1.90
-4.52
-11.30
-17.28
-21.87
-25.07
-27.15
-28.41
-28.90
-28.53
-27.47
-25.76
-23.81
-22.13
-21.10
-20.86
-21.50
-22.84
-24.33
-25.03
-23.79
-20.05
-14.22
-8.05
-3.82
-3.62
-8.01
-15.59
-23.55
-28.82
-29.30
-24.22
-14.03
0.16
16.27
31.73
43.92
50.68
51.34
47.06
40.64
34.09
30.34
29.97
31.47
32.63
31.96
29.37
25.69
21.90
18.55
15.95
13.91
12.36
11.31
10.51
9.58
8.07
5.79
2.87
0.08
-2.47
-4.68
-6.53
-8.26
-9.80
-10.86
-10.98
-9.70
-6.64
-2.03
3.56
9.39
14.26
17.43
18.54
17.62
15.10
11.71
8.39
6.50
7.80
13.24
23.32
37.25
52.19
64.05
68.88
64.60
52.27
37.12
22.55
11.04
2.95
-3.82
-12.87
-27.79
-51.04
-83.88
-120.78
-155.31
-180.95
-193.96
-193.96
-182.43
-161.37
-133.26
-101.03
-67.54
-35.75
-7.06
18.34
40.62
59.28
72.64
78.49
75.65
65.41
50.75
35.66
23.33
15.10
10.70
9.22
9.93
12.79
18.23
25.85
34.12
40.51
42.50
38.38
30.09
21.60
17.01
18.40
24.59
32.05
36.84
36.66
31.89
25.15
19.36
16.22
15.69
16.46
17.14
16.95
16.11
14.79
13.31
11.58
9.30
6.27
2.60
-1.26
-4.64
-7.18
-8.76
-9.41
-9.49
-9.50
-9.86
-10.76
-12.09
-13.40
-14.45
-15.17
-15.67
-16.32
-17.79
-20.71
-25.33
-31.38
-37.07
-41.14
-42.78
-41.86
-38.80
-34.61
-30.37
-26.77
-24.27
-21.87
-18.60
-13.62
-6.51
2.83
13.89
25.75
37.38
47.86
56.63
63.33
68.22
70.13
69.25
66.33
62.28
57.74
52.90
47.54
41.12
33.30
24.18
14.61
5.58
-2.12
-8.03
-12.15
-14.81
-16.61
-18.11
-19.70
-21.36
-23.00
-24.62
-26.30
-28.16
-30.07
-31.65
-32.30
-31.49
-29.09
-25.67
-22.34
-20.23
-19.99
-21.50
-24.10
-27.00
-29.68
-31.91
-33.63
-34.76
-35.07
-34.33
-32.54
-30.09
-27.56
-25.42
-23.62
-21.47
-17.87
-11.83
-2.95
8.30
20.66
32.48
42.23
48.91
52.33
52.98
51.77
49.58
46.96
44.08
40.82
37.06
32.84
28.45
24.25
20.51
17.25
14.25
11.28
8.25
5.31
2.86
1.31
0.85
1.44
2.75
4.42
6.13
7.72
9.18
10.57
12.00
13.46
14.87
16.13
17.20
18.12
18.95
19.83
20.85
22.00
23.16
24.13
24.74
24.99
24.97
24.70
24.24
23.57
22.71
21.62
20.32
18.82
17.22
15.55
13.47
10.70
7.18
3.19
-0.88
-4.66
-7.93
-10.55
-12.68
-15.32
-19.31
-24.94
-31.73
-38.91
-45.75
-51.81
-56.81
-60.88
-65.29
-70.93
-77.75
-84.69
-90.50
-94.47
-96.48
-96.63
-95.57
-95.34
-97.59
-102.86
-110.57
-119.83
-130.14
-141.24
-152.46
-154.32
-140.89
-112.70
-76.66
-41.00
-11.17
10.38
21.92
26.28
26.21
22.99
18.06
13.51
11.80
15.58
25.59
40.80
59.13
77.35
91.38
98.55
98.60
93.66
86.83
80.52
75.73
72.38
69.42
65.40
59.83
53.42
47.55
43.35
41.09
40.27
40.33
40.72
41.07
41.54
42.64
44.98
48.88
54.03
59.67
64.82
68.42
69.74
68.73
65.96
62.27
58.25
53.95
49.03
43.10
35.88
27.32
17.51
6.62
-5.14
-17.38
-29.40
-40.21
-48.83
-54.64
-57.67
-58.37
-57.27
-54.70
-50.61
-44.71
-36.61
-25.97
-13.01
1.03
14.12
24.28
30.43
32.54
31.12
27.07
21.50
15.67
10.58
6.61
3.39
-0.02
-4.46
-10.04
-15.84
-20.61
-23.12
-22.79
-19.90
-15.26
-9.66
-3.63
2.45
8.09
12.50
14.82
14.50
11.70
7.29
2.45
-1.60
-4.28
-5.68
-6.47
-7.42
-9.08
-11.59
-14.65
-17.72
-20.21
-21.76
-22.22
-21.78
-20.75
-19.53
-18.38
-17.36
-16.30
-15.01
-13.39
-11.53
-9.66
-7.98
-6.55
-5.29
-4.04
-2.68
-1.19
0.33
1.73
2.91
3.84
4.55
5.06
5.35
5.38
5.16
4.76
4.33
4.03
4.02
4.39
5.19
6.36
7.76
9.20
10.49
11.45
11.99
12.12
11.89
11.39
10.76
10.12
9.56
9.12
8.74
8.31
7.72
6.94
6.03
5.15
4.47
4.08
3.96
3.95
3.84
3.51
2.90
2.13
1.33
0.64
0.07
-0.40
-0.80
-1.02
-0.89
-0.23
0.94
2.35
3.58
4.21
4.07
3.34
2.38
1.54
0.95
0.46
-0.19
-1.19
-2.52
-3.95
-5.16
-5.90
-6.11
-5.90
-5.47
-5.05
-4.77
-4.70
-4.82
-5.08
-5.39
-5.72
-6.10
-6.59
-7.22
-7.96
-8.73
-9.41
-9.92
-10.24
-10.39
-10.41
-10.29
-10.00
-9.51
-8.80
-7.98
-7.17
-6.54
-6.18
-6.11
-6.25
-6.46
-6.59
-6.58
-6.41
-6.13
-5.87
-5.68
-5.61
-5.62
-5.67
-5.69
-5.64
-5.50
-5.28
-5.04
-4.82
-4.71
-4.73
-4.87
-5.04
-5.08
-4.85
-4.29
-3.44
-2.51
-1.70
-1.18
-1.01
-1.13
-1.38
-1.64
-1.82
-1.94
-2.10
-2.40
-2.87
-3.51
-4.18
-4.80
-5.30
-5.70
-6.04
-6.42
-6.88
-7.50
-8.30
-9.30
-10.46
-11.63
-12.55
-12.97
-12.75
-11.98
-10.99
-10.23
-9.97
-10.18
-10.53
-10.55
-9.91
-8.59
-6.86
-5.14
-3.72
-2.63
-1.73
-0.84
0.11
0.99
1.60
1.81
1.66
1.35
1.13
1.17
1.41
1.67
1.68
1.34
0.74
0.15
-0.09
0.21
0.99
2.00
2.87
3.33
3.33
3.06
2.79
2.80
3.17
3.86
4.71
5.53
6.19
6.62
6.83
6.86
6.78
6.63
6.44
6.22
5.97
5.72
5.54
5.46
5.49
5.61
5.74
5.80
5.75
5.58
5.32
5.02
4.72
4.45
4.20
3.96
3.70
3.42
3.14
2.95
2.89
2.94
2.99
2.85
2.39
1.61
0.68
-0.15
-0.66
-0.81
-0.75
-0.69
-0.80
-1.11
-1.52
-1.89
-2.16
-2.35
-2.55
-2.82
-3.16
-3.54
-3.89
-4.20
-4.54
-4.95
-5.48
-6.11
-6.79
-7.48
-8.16
-8.85
-9.59
-10.36
-11.08
-11.61
-11.86
-11.85
-11.71
-11.66
-11.88
-12.37
-12.85
-12.86
-11.87
-9.50
-5.55
-0.10
6.59
14.01
21.52
28.36
33.86
37.61
39.63
40.34
40.38
40.28
40.28
40.28
40.03
39.38
38.47
37.72
37.67
38.70
40.89
43.86
46.92
49.30
50.44
50.11
48.35
45.29
40.87
34.86
27.06
17.66
7.44
-2.29
-10.15
-15.16
-17.16
-16.70
-14.77
-12.34
-10.02
-8.08
-6.63
-5.84
-6.07
-7.74
-11.13
-16.11
-22.16
-28.48
-34.34
-39.35
-43.62
-47.53
-51.52
-55.71
-59.89
-63.65
-66.68
-69.05
-71.16
-73.54
-76.48
-79.87
-83.10
-85.33
-85.71
-83.61
-78.75
-71.25
-61.62
-50.78
-39.92
-30.30
-22.89
-18.06
-15.44
-14.01
-12.49
-9.72
-5.05
1.57
9.70
18.72
28.02
37.11
45.66
53.40
60.08
65.57
70.01
73.88
77.73
81.82
85.74
88.41
88.56
85.38
79.16
71.23
63.44
57.31
53.46
51.59
50.85
50.43
49.85
49.00
47.93
46.51
44.40
40.93
35.27
26.48
13.79
-2.98
-22.80
-43.12
-60.27
-70.58
-72.13
-65.45
-53.33
-39.73
-28.20
-20.58
-16.59
-14.47
-12.33
-9.54
-6.50
-3.80
-1.64
0.33
2.75
6.17
10.51
14.99
17.76
17.42
13.94
8.49
2.55
-2.84
-7.38
-11.47
-15.93
-22.42
-31.80
-43.41
-55.45
-66.05
-73.81
-77.90
-77.96
-68.65
-48.76
-22.94
1.22
18.34
26.86
27.87
23.83
17.62
11.77
6.98
3.12
-0.01
-2.45
-4.24
-5.34
-5.47
-4.30
-1.80
0.88
2.48
2.49
1.26
-0.42
-1.79
-2.34
-1.96
-0.89
0.04
0.42
0.54
1.10
2.38
4.01
5.20
5.35
4.58
3.54
3.39
5.23
9.46
15.33
21.20
25.32
26.33
24.39
20.64
16.71
14.00
13.08
13.52
14.35
14.68
14.15
13.12
11.89
10.55
8.86
6.53
3.58
0.53
-1.91
-3.37
-4.16
-5.35
-8.01
-12.47
-17.89
-22.65
-25.13
-24.64
-21.70
-17.75
-13.90
-10.68
-7.86
-4.87
-1.40
2.23
5.13
6.50
6.14
4.62
3.01
2.35
3.03
4.67
6.32
7.02
6.29
4.32
1.81
-0.47
-1.93
-2.44
-2.22
-1.75
-1.52
-1.87
-2.87
-4.41
-6.24
-8.05
-9.59
-10.59
-10.93
-10.65
-9.90
-8.90
-7.87
-6.99
-6.32
-6.14
-6.51
-7.31
-8.28
-9.13
-9.66
-9.81
-9.68
-9.49
-9.43
-9.50
-9.57
-9.43
-8.86
-7.76
-6.12
-4.03
-1.58
1.15
4.13
7.28
10.38
13.14
15.23
16.43
16.74
16.34
15.53
14.63
13.83
13.20
12.76
12.49
12.44
12.65
13.09
13.62
13.98
13.88
13.03
11.31
8.75
5.56
2.06
-1.41
-4.58
-7.32
-9.62
-11.54
-13.17
-14.54
-15.66
-16.59
-17.39
-18.13
-18.76
-19.13
-19.02
-18.27
-16.94
-15.26
-13.60
-12.19
-11.07
-10.08
-8.97
-7.58
-5.92
-4.20
-2.66
-1.48
-0.68
-0.19
0.12
0.32
0.47
0.58
0.70
0.92
1.33
1.94
2.65
3.26
3.61
3.72
3.84
4.41
5.80
8.15
11.30
14.87
18.55
22.22
26.01
30.06
34.37
38.56
42.01
44.03
44.22
42.58
39.51
35.60
31.36
27.03
22.61
17.93
12.92
7.70
2.66
-1.76
-5.23
-7.69
-9.38
-10.75
-12.21
-13.97
-15.98
-18.05
-19.94
-21.55
-22.94
-24.27
-25.68
-27.21
-28.78
-30.28
-31.64
-32.81
-33.80
-34.57
-35.01
-34.91
-34.06
-32.37
-29.92
-26.98
-23.93
-21.12
-18.79
-17.02
-15.68
-14.53
-13.31
-11.83
-10.01
-7.90
-5.65
-3.39
-1.22
0.77
2.57
4.15
5.55
6.82
8.02
9.26
10.59
12.03
13.53
14.97
16.26
17.29
18.01
18.41
18.58
18.63
18.72
18.95
19.36
19.88
20.36
20.65
20.61
20.23
19.53
18.63
17.65
16.74
15.99
15.45
15.04
14.61
13.96
12.89
11.36
9.46
7.44
5.59
4.15
3.20
2.65
2.34
2.09
1.84
1.62
1.58
1.85
2.44
3.26
4.06
4.62
4.80
4.61
4.19
3.65
3.06
2.35
1.47
0.37
-0.82
-1.92
-2.71
-3.10
-3.13
-3.01
-2.98
-3.20
-3.69
-4.33
-4.98
-5.49
-5.83
-6.00
-6.09
-6.17
-6.29
-6.49
-6.73
-6.99
-7.19
-7.29
-7.22
-6.98
-6.58
-6.04
-5.37
-4.54
-3.49
-2.14
-0.48
1.47
3.61
5.80
7.90
9.78
11.37
12.62
13.53
14.19
14.71
15.19
15.71
16.21
16.60
16.77
16.67
16.41
16.16
16.14
16.50
17.30
18.44
19.75
21.00
22.00
22.63
22.87
22.76
22.36
21.76
20.98
20.11
19.23
18.51
18.12
18.13
18.45
18.81
18.82
18.09
16.46
14.00
11.03
8.00
5.33
3.33
2.12
1.67
1.80
2.26
2.75
2.99
2.75
1.92
0.54
-1.29
-3.39
-5.59
-7.76
-9.75
-11.39
-12.52
-12.98
-12.73
-11.84
-10.49
-8.97
-7.55
-6.48
-5.87
-5.73
-5.93
-6.33
-6.79
-7.30
-7.91
-8.74
-9.95
-11.71
-14.16
-17.37
-21.17
-25.11
-28.47
-30.45
-30.48
-28.49
-24.99
-20.82
-16.77
-13.23
-10.09
-6.90
-3.22
1.12
5.94
10.82
15.36
19.20
22.15
24.08
24.98
24.90
24.03
22.60
20.85
18.92
16.82
14.50
11.95
9.24
6.56
4.09
2.03
0.52
-0.33
-0.52
-0.14
0.59
1.33
1.75
1.64
1.02
0.14
-0.67
-1.18
-1.40
-1.56
-1.95
-2.68
-3.62
-4.42
-4.77
-4.52
-3.91
-3.31
-3.11
-3.40
-3.98
-4.51
-4.79
-4.95
-5.37
-6.47
-8.41
-11.07
-14.04
-16.90
-19.41
-21.56
-23.49
-25.33
-27.11
-28.71
-29.96
-30.67
-30.76
-30.20
-29.03
-27.31
-25.14
-22.67
-20.00
-17.25
-14.51
-11.83
-9.28
-6.88
-4.64
-2.58
-0.70
0.94
2.26
3.18
3.68
3.80
3.59
3.11
2.33
1.20
-0.30
-2.08
-3.92
-5.50
-6.57
-7.00
-6.82
-6.24
-5.51
-4.90
-4.63
-4.85
-5.63
-6.88
-8.39
-9.84
-10.90
-11.32
-11.10
-10.48
-9.92
-9.86
-10.58
-12.07
-14.04
-16.14
-18.09
-19.80
-21.38
-22.95
-24.55
-26.06
-27.31
-28.13
-28.42
-28.14
-27.24
-25.65
-23.32
-20.26
-16.65
-12.77
-8.98
-5.58
-2.75
-0.48
1.33
2.90
4.43
6.11
8.02
10.14
12.36
14.54
16.55
18.32
19.81
21.01
21.94
22.70
23.44
24.30
25.32
26.44
27.49
28.28
28.68
28.68
28.39
28.02
27.73
27.62
27.71
27.94
28.22
28.39
28.30
27.92
27.29
26.49
25.56
24.47
23.10
21.28
18.70
15.28
11.33
7.48
4.36
2.35
1.52
1.61
2.23
2.55
2.09
1.02
-0.08
-0.67
-0.68
-0.44
-0.48
-1.25
-3.56
-7.61
-12.70
-17.59
-21.30
-23.58
-24.75
-25.43
-26.26
-28.61
-33.36
-40.34
-48.55
-56.85
-64.36
-70.30
-73.90
-69.35
-54.30
-32.14
-9.90
6.98
16.75
20.38
20.16
18.56
17.52
17.16
16.95
16.54
16.09
15.81
15.68
15.55
15.24
14.65
13.11
10.24
6.47
2.86
0.57
0.10
1.14
2.72
3.65
2.49
-1.57
-8.32
-16.48
-24.59
-31.56
-36.72
-39.61
-39.71
-36.92
-31.64
-24.80
-17.31
-10.28
-4.80
-1.43
-0.52
-1.44
-3.12
-4.52
-5.03
-3.80
-0.48
4.64
10.68
16.71
22.26
27.26
31.77
35.98
41.11
48.23
57.69
69.00
81.29
93.94
106.36
117.76
121.26
112.50
91.98
65.21
38.82
17.35
2.70
-5.44
-8.78
-9.56
-8.89
-7.66
-6.89
-7.26
-9.78
-14.47
-20.42
-26.28
-30.91
-33.06
-32.59
-30.18
-27.81
-27.16
-28.47
-30.77
-32.67
-33.74
-33.19
-30.87
-27.38
-23.74
-20.79
-18.76
-17.40
-16.34
-15.25
-13.70
-11.14
-7.65
-3.75
0.08
3.65
6.98
10.04
12.65
14.74
16.21
16.94
16.87
16.05
14.60
12.54
9.77
6.17
1.92
-2.10
-4.69
-5.18
-4.18
-3.27
-3.96
-6.97
-12.16
-18.74
-25.75
-32.56
-38.92
-44.61
-49.09
-51.55
-51.22
-47.88
-41.92
-34.42
-27.02
-21.49
-19.26
-20.85
-25.78
-31.74
-35.80
-35.40
-29.20
-17.68
-2.97
11.73
23.08
28.47
26.88
19.31
8.81
0.06
-1.76
7.36
28.35
58.01
89.36
114.46
127.42
126.16
112.51
90.76
65.74
41.44
20.54
4.51
-6.00
-10.97
-11.07
-7.66
-2.68
1.81
3.98
2.79
-1.63
-8.36
-15.68
-21.77
-25.29
-25.75
-23.55
-19.95
-16.57
-14.76
-15.43
-18.22
-21.74
-24.35
-25.23
-24.23
-22.03
-19.42
-16.98
-14.81
-12.60
-10.06
-7.25
-4.40
-1.58
1.37
4.84
8.83
12.85
16.11
17.66
16.64
12.48
4.98
-5.84
-18.51
-30.92
-40.51
-45.17
-44.15
-38.51
-30.71
-23.46
-19.14
-17.57
-17.71
-18.05
-17.24
-14.82
-11.24
-7.44
-4.20
-2.02
-0.62
0.15
0.53
0.77
0.94
0.92
0.46
-0.55
-2.25
-4.17
-5.87
-6.19
-3.64
3.12
14.62
30.46
49.54
69.98
90.25
105.52
111.38
106.32
92.77
75.29
57.67
44.04
33.44
24.79
17.22
10.72
5.51
0.94
-3.70
-9.18
-16.16
-24.49
-33.24
-41.63
-48.69
-53.40
-54.93
-53.17
-48.92
-43.72
-40.24
-39.41
-41.44
-45.65
-50.87
-55.85
-59.85
-62.74
-65.16
-65.85
-64.49
-61.19
-55.86
-48.15
-37.65
-25.33
-11.52
2.76
16.23
27.78
36.78
43.28
46.30
45.54
41.36
34.91
27.74
21.47
17.19
15.10
14.57
14.50
14.11
13.03
11.43
9.55
7.63
5.93
4.69
4.20
4.64
6.18
8.64
11.51
13.84
14.64
13.64
11.27
8.45
6.11
4.95
5.02
6.03
7.45
8.98
11.22
14.97
20.71
28.21
36.91
46.42
57.11
69.90
81.91
90.00
91.26
84.46
70.44
51.67
31.40
12.81
-2.02
-12.60
-19.21
-22.72
-23.74
-22.93
-20.59
-17.00
-12.63
-8.40
-5.38
-3.93
-3.88
-4.67
-5.75
-6.70
-7.54
-8.25
-9.30
-11.27
-14.28
-18.00
-21.78
-24.90
-26.67
-26.68
-24.78
-21.77
-18.71
-16.21
-14.23
-12.28
-9.88
-6.87
-3.68
-1.04
-0.60
-3.70
-10.72
-20.90
-32.84
-45.30
-57.37
-68.69
-75.40
-74.85
-66.91
-54.36
-40.83
-28.89
-19.56
-12.79
-9.06
-7.37
-7.75
-10.60
-16.05
-23.62
-32.36
-41.36
-48.77
-53.52
-54.95
-53.63
-50.53
-46.50
-41.96
-37.02
-31.62
-25.59
-18.91
-11.32
-2.98
5.90
15.10
24.35
33.23
41.19
47.66
52.17
54.69
55.27
54.30
52.40
50.35
48.77
47.84
47.28
46.48
45.05
43.10
41.42
41.17
43.15
47.14
51.70
54.66
53.98
48.81
39.67
28.23
16.43
5.73
-3.24
-10.41
-15.86
-19.50
-21.15
-20.98
-19.78
-19.06
-20.52
-25.32
-33.38
-43.23
-52.35
-58.07
-58.42
-52.85
-42.30
-28.77
-14.62
-1.93
7.87
14.11
16.90
16.99
15.67
14.50
14.85
17.45
22.12
27.82
33.11
36.77
38.22
37.80
36.55
35.74
36.33
38.62
42.10
45.65
47.90
47.70
44.54
38.81
31.60
24.22
17.74
12.70
9.12
6.68
4.99
3.93
3.76
4.83
7.18
10.28
13.09
14.52
13.88
11.07
6.89
2.89
0.68
1.36
5.15
11.27
18.24
24.05
26.25
22.98
14.02
1.20
-11.99
-21.41
-23.97
-18.70
-6.85
6.53
14.35
11.28
-3.53
-26.54
-51.70
-73.58
-89.03
-96.80
-97.87
-94.87
-90.97
-88.64
-88.83
-89.17
-87.33
-81.04
-69.55
-54.58
-39.48
-27.46
-20.05
-16.56
-14.53
-11.32
-5.01
4.69
16.31
27.61
36.74
42.94
46.64
49.02
51.04
53.04
54.39
53.73
49.90
42.88
33.96
25.16
18.32
14.20
12.37
11.54
10.25
7.49
3.16
-2.11
-7.20
-10.78
-11.70
-9.14
-2.96
6.13
16.59
26.60
34.47
39.08
40.09
37.76
32.59
25.13
16.03
6.28
-2.61
-9.15
-12.58
-13.35
-12.97
-13.24
-15.12
-18.04
-20.07
-18.72
-12.74
-3.02
7.66
15.97
19.78
19.18
16.34
12.85
10.28
9.10
8.44
6.86
3.33
-2.49
-10.56
-20.91
-33.39
-46.51
-57.08
-60.75
-53.74
-35.10
-8.06
20.82
43.91
55.66
54.79
44.10
28.61
13.12
0.64
-8.72
-15.69
-21.07
-25.10
-27.50
-27.88
-26.37
-23.74
-21.17
-19.76
-19.95
-21.46
-23.28
-24.00
-22.50
-18.54
-12.98
-7.56
-4.19
-3.92
-6.54
-10.65
-14.32
-15.94
-15.07
-12.61
-10.16
-9.11
-9.77
-11.41
-12.80
-13.01
-11.90
-9.95
-7.71
-5.19
-1.79
3.26
10.16
18.20
25.94
31.90
35.26
36.17
35.47
34.16
32.86
31.60
30.00
27.68
24.54
20.84
17.04
13.52
10.42
7.65
4.96
2.09
-1.01
-4.21
-7.25
-9.89
-11.91
-13.15
-13.47
-12.78
-11.06
-8.53
-5.62
-2.93
-0.93
0.15
0.49
0.46
0.43
0.51
0.55
0.29
-0.38
-1.30
-2.07
-2.29
-1.77
-0.58
1.00
2.70
4.41
6.24
8.36
10.80
13.26
15.23
16.15
15.74
14.23
12.29
10.83
10.61
11.97
14.60
17.65
19.90
20.19
17.71
12.33
4.66
-4.03
-12.20
-18.44
-21.89
-22.35
-20.23
-16.27
-11.37
-6.36
-2.02
1.04
2.40
1.97
-0.01
-3.03
-6.55
-10.16
-13.71
-17.22
-20.74
-24.19
-27.37
-30.07
-32.28
-34.20
-36.13
-38.28
-40.56
-42.56
-43.83
-44.01
-43.12
-41.50
-39.57
-37.60
-35.47
-32.75
-28.88
-23.49
-16.60
-8.65
-0.37
7.54
14.53
20.37
25.08
28.90
32.04
34.65
36.70
38.06
38.50
37.76
35.65
32.03
26.95
20.67
13.71
6.82
0.86
-3.44
-5.61
-5.61
-3.77
-0.69
2.93
6.45
9.37
11.36
12.29
12.21
11.29
9.75
7.76
5.42
2.75
-0.19
-3.25
-6.15
-8.60
-10.47
-11.92
-13.41
-15.51
-18.64
-22.74
-27.22
-31.07
-33.05
-32.01
-27.15
-18.27
-5.91
8.68
23.81
37.81
49.50
58.47
65.04
69.85
73.44
75.94
77.06
76.46
74.04
70.22
65.78
61.60
58.30
55.96
54.04
51.51
47.16
40.03
29.82
17.18
3.63
-8.93
-18.86
-25.41
-28.84
-30.20
-30.78
-31.61
-33.16
-35.39
-38.10
-41.17
-44.61
-48.31
-51.85
-54.38
-54.89
-52.67
-47.59
-40.32
-32.15
-24.48
-18.22
-13.53
-10.03
-7.22
-4.86
-3.06
-2.27
-3.01
-5.61
-9.52
-13.65
-16.74
-17.99
-17.35
-15.36
-12.77
-10.18
-7.79
-4.64
0.48
8.27
18.02
27.84
35.48
39.49
39.65
36.90
33.59
32.19
34.54
41.52
53.47
70.81
93.92
122.39
148.50
162.63
157.16
131.74
93.16
50.87
12.69
-17.19
-37.94
-50.81
-57.18
-58.23
-54.79
-48.04
-40.00
-32.47
-27.14
-24.89
-25.20
-26.31
-26.41
-24.09
-19.20
-12.89
-6.92
-3.24
-3.17
-6.69
-12.36
-18.57
-23.68
-26.80
-28.03
-26.33
-21.50
-17.23
-14.83
-12.65
-9.49
-4.46
2.68
11.49
21.14
30.40
38.29
44.85
50.46
55.53
60.76
66.79
73.77
81.26
88.01
92.60
94.42
93.45
90.17
85.62
80.93
76.63
72.31
66.50
57.13
42.45
21.09
-7.60
-42.91
-82.42
-121.98
-156.29
-180.39
-191.31
-189.22
-177.76
-162.68
-149.41
-140.91
-136.82
-134.32
-130.21
-122.71
-112.24
-100.85
-90.74
-83.00
-77.24
-72.20
-66.79
-60.65
-54.24
-48.14
-42.50
-36.73
-29.83
-21.00
-10.30
1.21
11.80
19.74
23.95
24.44
22.17
18.64
15.39
13.55
13.64
15.67
19.22
23.69
28.47
33.03
37.01
40.37
43.35
46.38
49.86
53.83
57.76
60.62
61.21
58.62
52.64
43.83
33.30
22.29
11.77
2.24
-6.17
-13.56
-20.01
-25.54
-30.11
-33.73
-36.51
-38.66
-40.47
-42.25
-44.24
-46.51
-48.90
-51.01
-52.31
-52.31
-50.78
-47.78
-43.70
-38.99
-33.98
-28.79
-23.24
-16.91
-9.26
0.25
11.96
25.76
40.86
55.75
68.43
76.85
79.50
75.82
66.37
52.60
36.46
19.89
4.51
-8.54
-18.59
-25.37
-28.91
-29.41
-27.23
-22.80
-16.57
-8.89
0.11
10.62
23.02
37.66
54.37
72.25
89.60
104.35
114.67
119.47
118.62
112.75
102.80
89.68
74.15
56.95
39.02
21.48
5.46
-8.28
-19.69
-29.41
-38.42
-47.52
-56.81
-65.51
-72.26
-75.72
-75.22
-71.21
-65.09
-58.72
-53.66
-50.75
-49.99
-50.85
-52.66
-54.85
-57.06
-58.96
-60.19
-60.38
-59.25
-56.72
-53.00
-48.47
-43.59
-38.74
-34.02
-29.15
-23.41
-15.85
-5.63
7.54
23.08
39.56
55.07
67.74
76.29
80.23
79.82
75.84
69.25
61.09
52.34
43.87
36.37
30.27
25.68
22.46
20.30
18.92
18.17
18.02
18.54
19.80
21.74
24.16
26.76
29.11
30.79
31.40
30.62
28.25
24.29
18.98
12.79
6.32
0.10
-5.47
-10.22
-14.13
-17.21
-19.50
-21.14
-22.38
-23.66
-25.49
-28.19
-31.71
-35.58
-39.06
-41.44
-42.30
-41.65
-39.95
-37.85
-36.02
-34.92
-34.71
-35.26
-36.30
-37.54
-38.85
-40.22
-41.64
-42.94
-43.77
-43.69
-42.45
-40.16
-37.32
-34.53
-32.06
-29.56
-26.11
-20.51
-11.90
-0.04
14.57
30.95
47.91
64.27
78.84
90.37
97.63
99.69
96.15
87.47
74.84
59.98
44.65
30.31
18.00
8.30
1.42
-2.73
-4.49
-4.42
-3.12
-1.19
0.91
2.96
4.83
6.50
7.90
8.91
9.39
9.26
8.59
7.58
6.52
5.62
4.91
4.28
3.60
2.82
2.06
1.50
1.23
1.09
0.72
-0.34
-2.40
-5.51
-9.42
-13.69
-17.87
-21.63
-24.82
-27.41
-29.49
-31.17
-32.60
-33.86
-34.95
-35.79
-36.29
-36.41
-36.22
-35.82
-35.29
-34.60
-33.63
-32.15
-30.05
-27.31
-24.06
-20.41
-16.38
-11.78
-6.28
0.47
8.71
18.38
29.09
40.08
50.30
58.56
63.77
65.24
62.84
57.08
48.97
39.71
30.42
21.91
14.58
8.55
3.71
-0.07
-2.93
-4.90
-5.98
-6.07
-5.15
-3.24
-0.51
2.73
6.05
9.00
11.24
12.60
13.08
12.76
11.77
10.20
8.15
5.83
3.53
1.62
0.40
-0.10
-0.09
-0.03
-0.37
-1.41
-3.11
-5.25
-7.50
-9.57
-11.33
-12.72
-13.74
-14.43
-14.85
-15.10
-15.32
-15.64
-16.18
-16.97
-17.99
-19.17
-20.36
-21.36
-21.88
-21.65
-20.47
-18.33
-15.41
-12.03
-8.53
-5.13
-1.91
1.26
4.67
8.73
13.85
20.29
27.97
36.33
44.39
50.92
54.77
55.19
52.04
45.82
37.43
28.01
18.59
10.00
2.80
-2.72
-6.48
-8.58
-9.22
-8.70
-7.36
-5.48
-3.23
-0.61
2.48
6.10
10.17
14.36
18.16
21.03
22.54
22.46
20.79
17.78
13.78
9.29
4.82
0.84
-2.33
-4.60
-6.13
-7.20
-8.11
-9.02
-9.98
-10.87
-11.52
-11.79
-11.60
-10.91
-9.77
-8.26
-6.51
-4.65
-2.82
-1.23
-0.08
0.33
-0.23
-1.88
-4.42
-7.37
-9.97
-11.49
-11.45
-9.94
-7.59
-5.41
-4.32
-4.74
-6.36
-8.24
-9.23
-8.36
-5.27
-0.26
5.83
11.91
16.94
20.09
20.89
19.24
15.45
10.22
4.51
-0.62
-4.29
-6.05
-5.94
-4.42
-2.16
0.26
2.42
4.15
5.41
6.21
6.55
6.49
6.13
5.63
5.16
4.80
4.52
4.22
3.74
2.94
1.77
0.30
-1.25
-2.52
-3.16
-2.92
-1.82
-0.21
1.41
2.52
2.80
2.19
0.79
-1.17
-3.48
-5.87
-8.08
-9.84
-10.95
-11.43
-11.49
-11.50
-11.77
-12.42
-13.40
-14.47
-15.46
-16.27
-16.95
-17.52
-17.88
-17.80
-16.96
-15.22
-12.73
-9.99
-7.61
-6.05
-5.35
-5.08
-4.49
-2.79
0.57
5.69
12.24
19.52
26.58
32.44
36.23
37.45
36.12
32.73
28.17
23.38
19.11
15.69
13.06
10.91
8.89
6.77
4.59
2.56
1.00
0.18
0.19
0.91
1.98
2.95
3.47
3.34
2.61
1.52
0.33
-0.78
-1.67
-2.27
-2.41
-1.82
-0.30
2.22
5.39
8.53
10.74
11.22
9.60
6.08
1.38
-3.52
-7.74
-10.80
-12.68
-13.78
-14.67
-15.84
-17.52
-19.62
-21.87
-23.97
-25.74
-27.26
-28.76
-30.44
-32.28
-33.97
-34.97
-34.76
-33.13
-30.31
-26.85
-23.40
-20.28
-17.32
-13.90
-9.13
-2.25
7.06
18.63
31.68
44.99
57.01
66.03
70.58
69.73
63.46
52.68
39.08
24.59
10.95
-0.67
-9.68
-15.92
-19.53
-20.76
-20.03
-17.93
-15.11
-12.19
-9.56
-7.31
-5.32
-3.32
-1.06
1.62
4.83
8.53
12.50
16.29
19.31
21.03
21.20
19.96
17.74
15.05
12.22
9.29
6.07
2.39
-1.71
-5.94
-9.76
-12.68
-14.43
-15.08
-14.99
-14.69
-14.63
-15.05
-15.94
-17.10
-18.28
-19.42
-20.66
-22.28
-24.45
-27.07
-29.73
-31.83
-32.88
-32.75
-31.69
-30.15
-28.50
-26.78
-24.69
-21.71
-17.40
-11.54
-4.25
4.14
13.14
22.14
30.35
36.91
40.94
41.86
39.57
34.57
27.82
20.51
13.67
8.01
3.81
1.04
-0.51
-1.09
-0.92
-0.14
1.17
2.94
5.13
7.70
10.58
13.70
16.99
20.35
23.63
26.56
28.75
29.81
29.47
27.80
25.16
22.08
19.01
16.12
13.22
9.94
5.96
1.26
-3.85
-8.84
-13.20
-16.61
-19.08
-20.87
-22.36
-23.89
-25.68
-27.73
-29.93
-32.10
-34.15
-36.09
-38.00
-39.96
-41.89
-43.54
-44.49
-44.33
-42.86
-40.11
-36.37
-32.03
-27.38
-22.47
-17.10
-10.93
-3.69
4.65
13.85
23.39
32.60
40.73
47.07
51.02
52.21
50.57
46.48
40.59
33.80
26.86
20.35
14.52
9.47
5.25
1.98
-0.18
-1.16
-1.01
0.11
2.03
4.70
8.14
12.34
17.08
21.86
25.94
28.60
29.28
27.77
24.21
19.05
12.94
6.66
0.99
-3.43
-6.28
-7.70
-8.24
-8.73
-9.90
-12.12
-15.31
-18.95
-22.41
-25.15
-26.93
-27.80
-27.93
-27.55
-26.81
-25.82
-24.68
-23.57
-22.70
-22.22
-22.15
-22.29
-22.26
-21.63
-20.04
-17.41
-13.92
-10.03
-6.29
-3.13
-0.71
1.22
3.21
5.87
9.63
14.50
20.04
25.48
29.95
32.76
33.49
32.10
28.79
23.94
18.02
11.61
5.27
-0.44
-5.07
-8.42
-10.48
-11.41
-11.46
-10.86
-9.78
-8.30
-6.46
-4.32
-1.91
0.69
3.40
6.10
8.60
10.65
11.89
11.97
10.66
8.05
4.59
1.06
-1.72
-3.18
-3.22
-2.26
-0.99
-0.02
0.37
0.30
0.13
0.15
0.41
0.65
0.44
-0.60
-2.60
-5.46
-8.84
-12.35
-15.67
-18.65
-21.30
-23.73
-26.01
-28.15
-30.08
-31.67
-32.81
-33.44
-33.49
-32.92
-31.69
-29.81
-27.34
-24.31
-20.65
-16.19
-10.65
-3.88
4.00
12.42
20.48
27.12
31.47
33.08
32.03
28.88
24.45
19.67
15.35
11.99
9.78
8.60
8.12
8.01
8.08
8.28
8.83
10.06
12.33
15.87
20.56
25.87
30.86
34.42
35.51
33.56
28.66
21.56
13.52
5.97
0.12
-3.35
-4.45
-3.82
-2.50
-1.57
-1.80
-3.46
-6.32
-9.86
-13.47
-16.66
-19.17
-20.94
-22.02
-22.52
-22.57
-22.27
-21.70
-20.90
-19.89
-18.64
-17.08
-15.09
-12.55
-9.35
-5.55
-1.40
2.70
6.28
9.00
10.83
12.03
13.12
14.70
17.20
20.84
25.46
30.63
35.71
39.97
42.77
43.64
42.43
39.30
34.70
29.25
23.58
18.29
13.79
10.38
8.15
7.03
6.75
6.96
7.32
7.60
7.85
8.30
9.24
10.77
12.60
14.12
14.55
13.29
10.04
4.98
-1.42
-8.54
-15.76
-22.53
-28.42
-33.10
-36.42
-38.46
-39.46
-39.80
-39.76
-39.50
-38.96
-37.99
-36.53
-34.61
-32.47
-30.34
-28.40
-26.63
-24.83
-22.74
-20.18
-17.18
-13.97
-10.83
-7.96
-5.33
-2.73
0.09
3.21
6.48
9.45
11.55
12.34
11.70
9.96
7.84
6.20
5.82
7.10
9.96
13.87
18.01
21.46
23.46
23.53
21.56
17.80
12.74
7.02
1.29
-3.84
-7.91
-10.68
-12.16
-12.58
-12.40
-12.12
-12.12
-12.50
-13.04
-13.27
-12.69
-11.03
-8.38
-5.19
-2.17
0.02
0.86
0.20
-1.73
-4.34
-6.73
-7.88
-6.87
-3.13
3.32
11.80
21.08
29.65
36.18
39.80
40.37
38.32
34.45
29.61
24.48
19.47
14.76
10.41
6.41
2.75
-0.58
-3.55
-6.12
-8.25
-9.92
-11.14
-11.94
-12.31
-12.23
-11.72
-10.89
-9.98
-9.25
-8.79
-8.50
-8.10
-7.39
-6.51
-5.93
-6.24
-7.70
-9.95
-12.02
-12.80
-11.56
-8.38
-4.14
-0.05
2.87
4.18
4.05
3.01
1.63
0.28
-0.86
-1.72
-2.24
-2.39
-2.16
-1.61
-0.79
0.32
1.80
3.80
6.33
9.24
12.18
14.81
16.84
18.18
18.83
18.83
18.16
16.87
15.05
13.02
11.17
9.92
9.56
10.12
11.44
13.14
14.78
15.86
15.91
14.60
11.81
7.74
2.98
-1.74
-5.67
-8.37
-9.83
-10.40
-10.69
-11.20
-12.20
-13.61
-15.10
-16.19
-16.43
-15.46
-13.11
-9.47
-5.00
-0.53
2.96
4.56
3.90
1.29
-2.33
-5.73
-7.93
-8.48
-7.53
-5.62
-3.31
-0.94
1.33
3.42
5.20
6.46
7.08
7.22
7.33
8.01
9.71
12.46
15.77
18.78
20.60
20.66
18.94
16.05
13.02
10.99
10.88
13.16
17.79
24.24
31.60
38.79
44.64
48.19
48.86
46.65
42.24
36.74
31.37
26.92
23.51
20.58
17.19
12.51
6.10
-2.07
-11.85
-23.10
-35.72
-49.36
-63.04
-75.04
-83.31
-86.32
-83.97
-77.98
-71.28
-66.85
-66.29
-69.16
-73.38
-76.30
-76.06
-72.30
-65.92
-58.26
-50.17
-41.65
-32.09
-20.85
-7.84
6.35
20.65
33.84
44.90
53.12
58.04
59.42
57.14
51.23
41.96
29.95
16.19
1.94
-11.43
-22.73
-31.19
-36.58
-39.13
-39.36
-37.82
-34.89
-30.79
-25.55
-19.16
-11.70
-3.40
5.28
13.74
21.32
27.53
32.14
35.18
36.87
37.53
37.45
36.97
36.49
36.45
37.20
38.84
41.02
42.94
43.53
41.84
37.38
30.33
21.48
11.84
2.27
-6.77
-15.22
-23.17
-30.58
-37.17
-42.50
-46.32
-48.80
-50.56
-52.39
-54.89
-58.18
-61.81
-65.02
-67.08
-67.57
-66.52
-64.27
-61.31
-57.96
-54.21
-49.67
-43.69
-35.71
-25.54
-13.55
-0.71
11.46
21.14
26.36
25.54
17.93
4.10
-13.88
-32.89
-49.76
-62.28
-69.83
-73.23
-73.79
-72.23
-68.14
-60.23
-47.17
-28.53
-5.21
20.71
46.59
69.86
88.58
101.66
108.98
111.34
110.21
107.30
104.08
101.42
99.53
98.21
97.18
96.21
95.03
93.15
89.90
84.73
77.56
69.20
61.16
55.04
51.75
51.01
51.44
51.24
48.98
44.18
37.38
29.76
22.54
16.34
11.11
6.28
1.23
-4.37
-10.53
-16.91
-22.94
-28.12
-32.30
-35.52
-37.91
-39.50
-39.97
-39.24
-37.26
-34.02
-29.73
-25.20
-21.26
-18.45
-16.79
-15.36
-13.68
-11.45
-8.50
-5.06
-2.09
-0.28
0.26
0.09
0.71
2.30
4.29
5.97
6.30
4.00
-1.38
-9.24
-18.31
-26.43
-33.62
-41.25
-51.04
-58.97
-61.85
-59.16
-53.79
-56.17
-66.35
-81.58
-98.91
-111.09
-114.45
-109.04
-97.52
-83.79
-71.19
-60.33
-51.27
-43.14
-34.78
-26.24
-18.84
-13.98
-12.14
-12.36
-11.90
-8.95
-2.67
6.81
18.03
28.89
37.54
43.06
45.61
46.56
46.77
46.69
46.37
45.31
42.87
38.75
33.22
27.05
21.45
17.10
14.09
12.01
9.93
6.94
2.55
-3.03
-8.97
-14.09
-17.47
-18.63
-17.50
-14.34
-9.46
-3.22
3.84
10.98
17.26
21.83
24.16
24.25
22.55
19.80
16.78
14.15
12.39
11.77
12.32
13.81
15.80
17.74
19.21
20.15
20.94
22.28
24.95
29.47
35.87
43.55
51.37
57.92
61.79
61.97
58.15
50.78
40.98
30.16
19.71
10.63
3.33
-2.27
-6.66
-10.50
-14.50
-19.20
-24.81
-31.09
-37.29
-42.35
-45.27
-45.50
-43.28
-39.57
-35.72
-32.90
-31.71
-32.06
-33.36
-34.94
-36.35
-37.50
-38.49
-39.38
-39.97
-39.82
-38.46
-35.66
-31.61
-26.86
-22.05
-17.58
-13.39
-9.08
-4.10
1.97
9.20
17.44
26.43
35.83
45.23
54.02
61.30
66.01
67.30
64.78
58.77
50.20
40.30
30.28
21.07
13.25
7.05
2.47
-0.71
-2.84
-4.32
-5.49
-6.45
-7.09
-7.13
-6.32
-4.54
-1.82
1.69
5.72
9.82
13.30
15.33
15.33
13.33
10.19
7.34
6.18
7.35
10.43
14.17
17.15
18.44
17.85
15.72
12.48
8.39
3.56
-1.80
-7.16
-11.72
-14.79
-16.11
-16.05
-15.46
-15.29
-16.17
-18.23
-21.07
-24.04
-26.56
-28.40
-29.76
-31.19
-33.30
-36.44
-40.50
-44.88
-48.69
-51.14
-51.77
-50.65
-48.31
-45.46
-42.70
-40.27
-37.95
-35.11
-30.87
-24.33
-14.89
-2.43
12.49
28.63
44.19
57.21
66.01
69.62
68.06
62.28
53.84
44.48
35.66
28.24
22.46
18.10
14.75
12.07
9.94
8.51
8.03
8.80
10.92
14.27
18.44
22.81
26.66
29.33
30.33
29.36
26.36
21.47
15.01
7.56
-0.06
-6.90
-12.02
-14.76
-14.97
-13.09
-10.03
-6.83
-4.33
-2.91
-2.39
-2.22
-1.68
-0.26
2.12
5.10
7.98
9.98
10.50
9.33
6.60
2.72
-1.84
-6.74
-11.81
-17.03
-22.36
-27.64
-32.51
-36.53
-39.34
-40.79
-41.03
-40.37
-39.16
-37.65
-35.98
-34.28
-32.57
-30.69
-28.07
-23.83
-17.01
-7.18
5.22
18.68
31.08
40.36
45.27
45.65
42.32
36.68
30.13
23.72
18.10
13.52
9.98
7.32
5.26
3.51
1.84
0.21
-1.06
-1.37
0.03
3.68
9.59
17.09
24.91
31.63
36.07
37.74
36.82
34.01
30.18
26.09
22.28
19.14
16.95
15.93
16.17
17.52
19.53
21.49
22.51
21.84
19.15
14.70
9.33
4.22
0.43
-1.50
-1.79
-1.21
-0.79
-1.33
-3.14
-6.05
-9.58
-13.19
-16.50
-19.31
-21.56
-23.28
-24.54
-25.44
-26.06
-26.48
-26.72
-26.76
-26.56
-26.03
-25.10
-23.79
-22.23
-20.68
-19.51
-18.95
-18.94
-19.02
-18.39
-16.17
-11.78
-5.14
3.23
12.46
21.60
29.86
36.62
41.39
43.73
43.32
40.13
34.61
27.67
20.50
14.16
9.28
5.91
3.68
2.07
0.74
-0.35
-0.98
-0.86
0.22
2.35
5.50
9.55
14.31
19.47
24.54
28.88
31.83
32.90
31.96
29.29
25.53
21.42
17.59
14.29
11.39
8.45
4.97
0.67
-4.35
-9.59
-14.40
-18.28
-21.05
-22.97
-24.52
-26.14
-27.99
-29.99
-31.90
-33.54
-34.78
-35.55
-35.65
-34.77
-32.65
-29.19
-24.57
-19.16
-13.26
-6.96
-0.09
7.47
15.60
23.80
31.26
37.14
40.74
41.73
39.98
35.52
28.44
18.97
7.53
-5.11
-17.81
-29.22
-38.03
-43.17
-44.02
-40.48
-32.90
-22.05
-8.98
5.08
18.78
30.85
40.19
46.10
48.31
46.99
42.62
35.96
27.86
19.20
10.78
3.22
-3.08
-8.00
-11.57
-13.89
-15.00
-14.91
-13.61
-11.20
-7.98
-4.42
-1.07
1.54
3.09
3.52
3.06
2.11
1.11
0.42
0.12
0.03
-0.22
-0.96
-2.35
-4.21
-6.11
-7.57
-8.27
-8.19
-7.58
-6.85
-6.36
-6.33
-6.79
-7.62
-8.58
-9.39
-9.81
-9.72
-9.14
-8.21
-7.18
-6.30
-5.77
-5.73
-6.29
-7.52
-9.42
-11.81
-14.37
-16.59
-17.95
-18.03
-16.66
-13.98
-10.36
-6.28
-2.22
1.44
4.49
6.85
8.48
9.38
9.55
9.00
7.79
6.05
4.10
2.36
1.39
1.76
3.90
7.99
13.79
20.68
27.74
34.00
38.64
41.24
41.85
40.84
38.74
36.01
32.90
29.47
25.71
21.72
17.82
14.48
12.15
11.07
11.14
12.04
13.26
14.24
14.45
13.43
10.87
6.74
1.37
-4.52
-10.03
-14.44
-17.47
-19.40
-20.83
-22.32
-24.01
-25.55
-26.19
-25.16
-21.99
-16.68
-9.67
-1.67
6.46
13.92
20.02
24.21
26.25
26.14
24.18
20.87
16.80
12.55
8.58
5.17
2.37
-0.03
-2.46
-5.45
-9.41
-14.35
-19.85
-25.16
-29.48
-32.26
-33.30
-32.66
-30.49
-26.89
-21.93
-15.77
-8.79
-1.62
5.13
11.03
16.05
20.50
24.92
29.72
35.14
41.09
47.24
53.11
58.36
63.04
67.55
72.40
77.78
83.25
87.74
89.99
89.16
85.23
78.92
71.00
61.59
49.70
33.61
11.62
-17.09
-51.78
-90.05
-128.14
-161.54
-186.05
-198.75
-198.61
-186.68
-165.55
-138.24
-107.40
-75.03
-42.93
-13.24
11.33
28.23
36.28
36.73
33.12
29.82
30.09
34.72
42.07
49.35
54.38
56.68
57.42
58.60
61.87
68.12
77.38
89.08
102.08
114.47
123.49
126.03
119.72
103.93
80.40
52.70
25.11
1.27
-16.59
-27.70
-32.40
-31.56
-26.41
-18.47
-9.54
-1.43
4.43
7.41
7.90
7.23
7.23
9.54
15.11
23.81
34.54
45.59
55.21
62.19
66.12
67.36
66.57
64.30
60.56
54.89
46.78
36.31
24.52
13.33
4.82
-0.14
-2.59
-5.79
-14.23
-32.10
-61.73
-103.23
-155.05
-214.96
-280.50
-348.42
-413.71
-469.29
-507.25
-521.32
-509.34
-474.22
-422.72
-362.51
-299.42
-236.36
-174.35
-114.62
-60.06
-14.68
18.63
40.48
55.66
71.36
93.56
123.79
158.04
188.27
206.29
207.38
192.27
166.43
137.50
112.28
94.81
85.97
84.13
86.13
88.25
87.12
80.62
68.80
53.98
40.14
31.24
29.65
35.30
45.87
58.03
68.76
76.22
79.80
79.72
76.49
70.69
63.05
54.58
46.47
39.85
35.66
34.39
36.00
39.95
45.42
51.68
58.31
65.26
72.58
80.02
86.67
90.83
90.53
84.33
72.04
55.03
35.47
15.85
-1.74
-15.90
-26.03
-32.01
-33.87
-31.73
-26.01
-18.29
-10.69
-5.05
-2.26
-2.18
-3.94
-6.38
-8.46
-9.61
-11.19
-14.79
-20.91
-28.38
-35.16
-39.47
-40.42
-38.11
-33.32
-29.35
-29.34
-34.45
-43.38
-53.74
-63.71
-72.56
-80.50
-88.34
-99.91
-119.06
-147.20
-182.44
-220.94
-258.88
-293.33
-322.33
-327.37
-296.71
-232.98
-152.92
-75.32
-10.46
40.41
80.62
114.02
142.17
164.43
177.91
180.62
173.07
157.52
136.55
112.50
87.36
62.52
38.14
14.20
-7.93
-25.08
-33.82
-32.45
-21.82
-4.99
13.90
30.00
39.95
43.62
43.88
44.48
47.86
54.36
62.55
70.42
75.74
77.07
74.69
70.43
66.62
64.89
65.58
68.05
71.29
74.52
77.51
80.69
84.59
89.16
93.48
96.08
95.68
91.71
84.51
74.87
63.71
51.83
39.79
28.00
16.71
6.07
-3.88
-13.03
-21.17
-28.11
-33.92
-39.06
-44.26
-50.06
-56.20
-61.55
-64.46
-63.57
-58.51
-49.95
-39.30
-27.99
-17.35
-8.66
-3.55
-3.86
-11.08
-25.42
-45.38
-68.14
-90.61
-110.70
-127.72
-141.93
-153.41
-161.31
-163.84
-159.15
-146.46
-126.76
-102.61
-77.40
-54.14
-34.76
-19.83
-8.77
-0.20
7.57
16.07
26.28
38.34
51.53
64.55
76.08
85.22
91.69
95.79
97.98
98.74
98.38
97.15
95.35
93.29
91.20
89.06
86.56
83.31
79.10
74.09
68.70
63.50
58.84
54.79
51.19
47.78
44.28
40.44
35.98
30.62
24.30
17.26
10.14
3.79
-1.13
-4.45
-6.55
-8.17
-10.00
-12.32
-14.92
-17.30
-18.98
-19.79
-19.92
-19.75
-19.63
-19.69
-19.80
-19.71
-19.19
-18.20
-16.88
-15.50
-14.34
-13.58
-13.29
-13.43
-13.87
-14.53
-15.35
-16.35
-17.59
-19.14
-21.00
-23.09
-25.19
-27.02
-28.31
-28.92
-28.91
-28.55
-28.17
-28.03
-28.18
-28.43
-28.49
-28.15
-27.39
-26.40
-25.45
-24.69
-24.13
-23.68
-23.29
-23.08
-23.21
-23.75
-24.51
-25.02
-24.81
-23.63
-21.72
-19.66
-18.18
-17.80
-18.67
-20.54
-22.74
-24.14
-23.29
-18.78
-9.76
3.49
19.35
35.12
47.78
54.82
55.05
48.94
38.67
27.69
19.98
19.08
26.98
43.41
65.80
90.14
112.28
129.25
139.82
144.23
143.35
138.04
128.92
116.69
102.52
88.19
75.65
66.30
60.31
56.45
52.57
46.48
36.94
24.23
9.96
-3.67
-14.82
-22.72
-27.69
-30.69
-32.58
-33.68
-33.93
-33.28
-32.15
-31.50
-32.32
-35.06
-39.17
-43.25
-45.76
-45.75
-43.47
-40.33
-38.27
-38.98
-43.14
-50.23
-58.71
-66.71
-72.70
-75.93
-76.58
-75.40
-73.34
-71.13
-69.12
-67.40
-65.95
-64.76
-63.77
-62.80
-61.41
-59.01
-55.08
-49.33
-41.77
-32.51
-21.66
-9.23
4.58
19.15
33.24
45.29
53.89
58.33
58.82
56.34
52.08
46.96
41.31
34.97
27.60
19.03
9.41
-0.82
-11.01
-20.54
-28.87
-35.68
-40.88
-44.56
-46.95
-48.32
-48.93
-49.03
-48.88
-48.79
-49.11
-50.08
-51.72
-53.81
-55.84
-57.26
-57.72
-57.18
-55.88
-54.09
-51.73
-48.31
-43.04
-35.28
-25.07
-13.27
-1.34
9.24
17.66
24.17
29.91
36.28
44.19
53.55
63.30
71.92
78.15
81.55
82.44
81.62
79.71
76.83
72.72
67.13
60.23
52.82
45.95
40.45
36.55
33.92
32.11
31.07
31.28
33.50
38.18
44.92
52.43
58.93
62.77
63.08
59.95
54.22
47.04
39.37
31.76
24.37
17.26
10.50
4.36
-0.88
-5.04
-8.16
-10.44
-12.09
-13.13
-13.34
-12.43
-10.28
-7.15
-3.69
-0.77
0.75
0.30
-2.42
-7.40
-14.38
-22.84
-32.00
-40.87
-48.42
-53.84
-56.78
-57.38
-56.21
-53.99
-51.38
-48.86
-46.68
-44.92
-43.58
-42.61
-41.95
-41.54
-41.34
-41.37
-41.59
-41.97
-42.30
-42.35
-41.84
-40.59
-38.58
-35.96
-32.99
-30.00
-27.30
-25.15
-23.70
-22.86
-22.29
-21.37
-19.33
-15.55
-9.79
-2.38
5.90
14.05
21.19
26.82
30.81
33.36
34.76
35.33
35.34
35.05
34.67
34.36
34.16
34.01
33.76
33.28
32.54
31.63
30.71
29.95
29.41
29.07
28.82
28.57
28.23
27.73
27.04
26.12
24.95
23.54
21.89
20.03
17.94
15.57
12.95
10.28
7.93
6.49
6.49
8.27
11.79
16.62
22.10
27.53
32.39
36.47
39.75
42.29
44.14
45.27
45.62
45.15
43.99
42.36
40.54
38.80
37.31
36.17
35.34
34.74
34.21
33.46
32.11
29.75
26.12
21.15
15.12
8.51
1.83
-4.62
-10.79
-16.92
-23.37
-30.32
-37.68
-45.03
-51.73
-57.21
-61.19
-63.72
-65.15
-65.84
-65.92
-65.18
-63.15
-59.45
-54.07
-47.54
-40.75
-34.56
-29.46
-25.33
-21.66
-17.88
-13.79
-9.70
-6.29
-4.24
-3.85
-4.90
-6.74
-8.63
-9.98
-10.51
-10.16
-9.00
-7.15
-4.80
-2.25
0.04
1.58
2.06
1.55
0.50
-0.45
-0.78
-0.33
0.60
1.41
1.58
0.91
-0.38
-1.69
-2.41
-2.12
-0.82
1.17
3.33
5.21
6.54
7.23
7.32
6.89
6.03
4.88
3.64
2.60
2.01
1.96
2.30
2.68
2.71
2.14
0.93
-0.75
-2.65
-4.57
-6.38
-7.98
-9.25
-10.00
-10.03
-9.21
-7.58
-5.34
-2.76
-0.09
2.47
4.77
6.67
8.01
8.63
8.51
7.74
6.49
4.91
3.08
1.04
-1.13
-3.24
-4.95
-5.90
-5.85
-4.79
-2.86
-0.37
2.34
4.97
7.18
8.69
9.28
8.90
7.74
6.13
4.46
3.01
1.88
1.01
0.30
-0.34
-0.89
-1.38
-1.79
-2.20
-2.70
-3.36
-4.21
-5.13
-5.91
-6.27
-6.04
-5.23
-4.11
-3.13
-2.75
-3.24
-4.58
-6.46
-8.48
-10.26
-11.65
-12.64
-13.28
-13.63
-13.65
-13.34
-12.72
-11.88
-10.94
-9.93
-8.84
-7.55
-5.96
-4.06
-1.92
0.35
2.57
4.66
6.52
8.13
9.48
10.59
11.54
12.45
13.51
14.84
16.48
18.26
19.89
21.00
21.32
20.75
19.38
17.38
14.99
12.37
9.71
7.18
5.00
3.34
2.25
1.59
1.07
0.38
-0.65
-1.98
-3.39
-4.59
-5.40
-5.76
-5.80
-5.71
-5.66
-5.74
-5.94
-6.15
-6.25
-6.17
-5.93
-5.61
-5.29
-4.97
-4.59
-4.03
-3.21
-2.15
-0.96
0.24
1.35
2.31
3.06
3.49
3.47
2.88
1.72
0.18
-1.46
-2.91
-4.04
-4.86
-5.50
-6.08
-6.59
-6.92
-6.94
-6.52
-5.70
-4.57
-3.27
-1.96
-0.69
0.49
1.56
2.49
3.21
3.66
3.77
3.52
2.91
1.95
0.67
-0.87
-2.64
-4.55
-6.52
-8.40
-10.01
-11.17
-11.67
-11.39
-10.32
-8.56
-6.28
-3.69
-0.97
1.79
4.46
6.93
8.97
10.35
10.91
10.68
9.86
8.77
7.69
6.77
5.99
5.27
4.54
3.88
3.42
3.30
3.52
3.93
4.26
4.27
3.84
3.02
1.97
0.87
-0.22
-1.33
-2.60
-4.08
-5.76
-7.45
-8.96
-10.14
-11.03
-11.75
-12.48
-13.27
-14.00
-14.37
-14.06
-12.84
-10.72
-7.94
-4.86
-1.89
0.70
2.76
4.32
5.48
6.36
7.03
7.47
7.67
7.57
7.19
6.58
5.86
5.20
4.74
4.60
4.79
5.21
5.72
6.15
6.42
6.47
6.35
6.18
6.04
5.99
6.01
6.01
5.85
5.44
4.72
3.78
2.74
1.80
1.03
0.42
-0.16
-0.86
-1.79
-2.94
-4.27
-5.70
-7.19
-8.71
-10.15
-11.33
-11.98
-11.90
-11.07
-9.68
-7.98
-6.20
-4.43
-2.64
-0.76
1.17
3.01
4.60
5.82
6.70
7.36
7.91
8.42
8.87
9.18
9.31
9.21
8.86
8.31
7.65
7.02
6.56
6.32
6.22
6.06
5.57
4.55
2.97
0.95
-1.26
-3.38
-5.20
-6.61
-7.57
-8.10
-8.18
-7.77
-6.84
-5.42
-3.66
-1.91
-0.59
-0.04
-0.37
-1.43
-2.84
-4.24
-5.43
-6.41
-7.36
-8.38
-9.45
-10.37
-10.87
-10.73
-9.83
-8.18
-5.85
-2.98
0.22
3.48
6.46
8.85
10.45
11.21
11.22
10.65
9.68
8.48
7.21
6.02
5.01
4.21
3.60
3.11
2.68
2.31
2.06
1.94
1.94
1.92
1.70
1.11
0.06
-1.43
-3.24
-5.20
-7.16
-8.97
-10.45
-11.36
-11.39
-10.31
-8.06
-4.83
-1.06
2.71
6.03
8.69
10.66
12.03
12.87
13.19
12.99
12.37
11.49
10.63
10.01
9.72
9.71
9.86
10.05
10.23
10.43
10.69
11.01
11.31
11.43
11.22
10.56
9.47
8.07
6.59
5.24
4.16
3.32
2.61
1.88
1.02
0.03
-1.00
-1.96
-2.72
-3.25
-3.58
-3.83
-4.13
-4.59
-5.27
-6.17
-7.22
-8.32
-9.38
-10.32
-11.04
-11.45
-11.52
-11.29
-10.93
-10.67
-10.72
-11.09
-11.63
-12.03
-12.01
-11.46
-10.51
-9.40
-8.39
-7.53
-6.68
-5.56
-3.97
-1.95
0.20
2.06
3.35
4.09
4.57
5.22
6.33
7.86
9.52
10.89
11.70
11.90
11.66
11.23
10.77
10.30
9.76
9.07
8.26
7.37
6.49
5.63
4.76
3.85
2.87
1.87
0.90
0.01
-0.79
-1.53
-2.22
-2.82
-3.26
-3.47
-3.44
-3.23
-3.01
-2.94
-3.14
-3.65
-4.40
-5.21
-5.89
-6.24
-6.19
-5.76
-5.16
-4.67
-4.57
-5.01
-5.91
-6.97
-7.80
-8.02
-7.43
-6.10
-4.33
-2.54
-1.18
-0.56
-0.77
-1.61
-2.70
-3.62
-4.04
-3.84
-3.13
-2.12
-1.02
0.02
0.92
1.63
2.07
2.15
1.87
1.36
0.83
0.52
0.56
0.92
1.41
1.78
1.85
1.57
1.03
0.40
-0.11
-0.38
-0.41
-0.38
-0.53
-1.10
-2.22
-3.79
-5.54
-7.07
-8.01
-8.17
-7.50
-6.15
-4.37
-2.39
-0.39
1.57
3.41
5.09
6.45
7.24
7.28
6.49
5.00
3.17
1.43
0.13
-0.55
-0.72
-0.61
-0.47
-0.41
-0.37
-0.18
0.32
1.11
1.99
2.69
2.95
2.70
2.01
1.00
-0.20
-1.57
-3.14
-4.84
-6.51
-7.91
-8.87
-9.33
-9.44
-9.42
-9.48
-9.73
-10.16
-10.65
-11.01
-11.01
-10.43
-9.10
-7.01
-4.37
-1.52
1.12
3.28
4.86
5.92
6.64
7.13
7.40
7.40
7.07
6.43
5.63
4.89
4.44
4.45
4.97
5.89
6.98
7.94
8.53
8.62
8.29
7.74
7.19
6.80
6.55
6.24
5.61
4.43
2.68
0.50
-1.81
-3.96
-5.78
-7.26
-8.52
-9.72
-10.94
-12.06
-12.84
-13.02
-12.47
-11.26
-9.61
-7.81
-6.07
-4.41
-2.72
-0.85
1.28
3.59
5.87
7.85
9.27
10.02
10.11
9.67
8.87
7.85
6.73
5.53
4.28
3.00
1.71
0.46
-0.74
-1.83
-2.70
-3.16
-3.00
-2.11
-0.54
1.40
3.36
5.02
6.26
7.11
7.72
8.16
8.32
8.00
7.04
5.39
3.19
0.70
-1.82
-4.18
-6.33
-8.32
-10.21
-12.02
-13.63
-14.83
-15.36
-15.04
-13.87
-12.04
-9.88
-7.73
-5.74
-3.91
-2.10
-0.18
1.88
3.98
6.00
7.83
9.45
10.87
12.07
12.97
13.46
13.44
12.93
12.02
10.90
9.75
8.75
8.01
7.59
7.47
7.56
7.71
7.72
7.43
6.76
5.77
4.58
3.34
2.17
1.06
-0.01
-1.13
-2.34
-3.61
-4.91
-6.18
-7.36
-8.43
-9.37
-10.15
-10.78
-11.26
-11.65
-12.06
-12.53
-13.06
-13.49
-13.54
-12.94
-11.47
-9.15
-6.17
-2.92
0.20
2.87
4.99
6.64
7.97
9.09
10.00
10.59
10.70
10.27
9.36
8.17
6.95
5.91
5.16
4.68
4.37
4.07
3.68
3.12
2.37
1.49
0.55
-0.40
-1.38
-2.43
-3.62
-4.94
-6.28
-7.49
-8.43
-9.05
-9.47
-9.89
-10.49
-11.36
-12.42
-13.52
-14.49
-15.31
-16.05
-16.87
-17.85
-18.97
-20.07
-20.83
-20.82
-19.55
-16.62
-11.83
-5.37
2.15
9.79
16.50
21.49
24.40
25.35
24.77
23.14
20.81
17.93
14.67
11.29
8.22
5.96
4.79
4.74
5.49
6.61
7.77
8.84
9.89
10.98
12.06
12.85
13.04
12.38
10.89
8.82
6.53
4.32
2.34
0.60
-0.93
-2.19
-3.08
-3.52
-3.50
-3.21
-2.93
-2.94
-3.37
-4.15
-5.05
-5.76
-6.07
-5.93
-5.44
-4.79
-4.13
-3.54
-2.97
-2.27
-1.30
0.02
1.65
3.44
5.18
6.70
7.95
8.96
9.80
10.48
10.93
11.06
10.81
10.22
9.40
8.54
7.76
7.12
6.60
6.18
5.80
5.37
4.83
4.13
3.28
2.34
1.43
0.58
-0.23
-1.12
-2.19
-3.39
-4.59
-5.60
-6.29
-6.69
-6.92
-7.18
-7.63
-8.33
-9.28
-10.40
-11.55
-12.59
-13.37
-13.81
-13.94
-13.86
-13.59
-13.10
-12.18
-10.60
-8.24
-5.21
-1.78
1.70
4.93
7.76
10.10
11.93
13.16
13.73
13.69
13.22
12.63
12.18
12.01
12.03
12.06
11.85
11.29
10.36
9.16
7.79
6.38
5.07
4.02
3.34
3.07
3.11
3.25
3.23
2.89
2.22
1.33
0.38
-0.52
-1.37
-2.19
-3.03
-3.86
-4.65
-5.42
-6.24
-7.20
-8.40
-9.83
-11.42
-13.02
-14.56
-15.98
-17.32
-18.60
-19.79
-20.76
-21.34
-21.36
-20.69
-19.28
-17.16
-14.38
-11.03
-7.31
-3.50
0.09
3.14
5.44
6.93
7.66
7.74
7.32
6.51
5.51
4.56
3.96
3.93
4.51
5.52
6.60
7.40
7.74
7.64
7.32
6.99
6.76
6.53
6.13
5.40
4.32
3.02
1.73
0.64
-0.18
-0.75
-1.17
-1.53
-1.90
-2.29
-2.75
-3.30
-3.95
-4.65
-5.26
-5.59
-5.51
-5.00
-4.20
-3.36
-2.74
-2.49
-2.57
-2.80
-2.93
-2.74
-2.14
-1.23
-0.17
0.82
1.57
1.97
1.95
1.51
0.71
-0.32
-1.39
-2.29
-2.90
-3.20
-3.32
-3.42
-3.62
-3.91
-4.20
-4.38
-4.41
-4.37
-4.36
-4.42
-4.47
-4.28
-3.57
-2.09
0.29
3.51
7.34
11.39
15.17
18.19
20.06
20.60
19.94
18.40
16.40
14.29
12.22
10.15
7.99
5.68
3.32
1.18
-0.43
-1.30
-1.43
-0.98
-0.21
0.71
1.68
2.68
3.66
4.53
5.13
5.32
5.09
4.51
3.74
2.90
2.05
1.23
0.49
-0.06
-0.38
-0.44
-0.36
-0.30
-0.38
-0.62
-0.92
-1.17
-1.26
-1.24
-1.27
-1.53
-2.13
-3.01
-4.01
-4.91
-5.55
-5.93
-6.16
-6.40
-6.80
-7.37
-8.07
-8.79
-9.47
-10.14
-10.85
-11.69
-12.62
-13.55
-14.29
-14.62
-14.38
-13.47
-11.91
-9.81
-7.36
-4.75
-2.22
0.10
2.13
3.86
5.30
6.50
7.47
8.21
8.73
9.02
9.07
8.92
8.61
8.27
8.02
7.94
8.03
8.14
8.08
7.63
6.68
5.27
3.61
1.91
0.43
-0.69
-1.44
-1.84
-2.01
-2.03
-2.02
-2.06
-2.19
-2.42
-2.74
-3.11
-3.56
-4.06
-4.66
-5.35
-6.15
-7.06
-8.04
-9.03
-9.93
-10.62
-10.97
-10.78
-9.90
-8.21
-5.75
-2.70
0.56
3.60
6.05
7.73
8.67
9.02
9.00
8.72
8.20
7.40
6.34
5.11
3.86
2.74
1.82
1.11
0.59
0.27
0.17
0.30
0.63
1.05
1.43
1.62
1.48
0.93
-0.08
-1.55
-3.38
-5.36
-7.21
-8.61
-9.37
-9.50
-9.24
-8.96
-9.07
-9.83
-11.28
-13.19
-15.07
-16.22
-15.95
-13.70
-9.32
-3.18
3.88
10.72
16.26
19.84
21.39
21.34
20.41
19.23
18.10
17.01
15.75
14.16
12.26
10.25
8.36
6.80
5.53
4.40
3.14
1.62
-0.11
-1.79
-3.04
-3.57
-3.22
-2.12
-0.55
1.09
2.44
3.29
3.60
3.48
3.10
2.63
2.07
1.35
0.30
-1.18
-3.09
-5.25
-7.38
-9.23
-10.64
-11.65
-12.41
-13.10
-13.83
-14.59
-15.25
-15.67
-15.69
-15.27
-14.42
-13.25
-11.89
-10.43
-8.92
-7.36
-5.75
-4.14
-2.62
-1.21
0.16
1.77
3.90
6.74
10.14
13.61
16.48
18.16
18.44
17.47
15.74
13.73
11.75
9.85
7.91
5.81
3.62
1.51
-0.26
-1.51
-2.21
-2.52
-2.76
-3.26
-4.26
-5.79
-7.54
-9.00
-9.59
-8.86
-6.81
-3.84
-0.72
1.79
3.18
3.37
2.68
1.57
0.42
-0.61
-1.50
-2.22
-2.61
-2.41
-1.37
0.56
3.15
5.95
8.41
10.11
10.91
10.89
10.40
9.81
9.42
9.32
9.42
9.47
9.27
8.73
7.93
7.03
6.23
5.61
5.17
4.86
4.63
4.49
4.44
4.42
4.36
4.13
3.65
2.94
2.06
1.09
0.08
-0.95
-1.97
-2.92
-3.71
-4.24
-4.53
-4.67
-4.83
-5.19
-5.83
-6.73
-7.74
-8.68
-9.42
-9.93
-10.33
-10.76
-11.29
-11.87
-12.33
-12.49
-12.20
-11.46
-10.29
-8.74
-6.82
-4.54
-2.02
0.52
2.77
4.46
5.46
5.89
5.96
5.94
5.95
5.98
5.90
5.59
5.00
4.23
3.51
3.06
3.07
3.56
4.36
5.21
5.81
5.97
5.66
5.01
4.19
3.39
2.68
2.09
1.56
1.05
0.52
-0.03
-0.58
-1.12
-1.68
-2.31
-3.08
-4.01
-5.09
-6.28
-7.48
-8.60
-9.55
-10.21
-10.46
-10.19
-9.33
-7.90
-6.03
-3.88
-1.60
0.74
3.06
5.29
7.24
8.70
9.47
9.51
8.97
8.10
7.21
6.48
5.95
5.60
5.41
5.36
5.47
5.70
5.93
6.04
5.96
5.68
5.26
4.72
4.02
3.13
2.06
0.91
-0.12
-0.88
-1.34
-1.65
-2.04
-2.69
-3.66
-4.84
-6.07
-7.23
-8.30
-9.32
-10.37
-11.45
-12.52
-13.46
-14.15
-14.48
-14.39
-13.84
-12.82
-11.39
-9.63
-7.63
-5.47
-3.19
-0.81
1.64
4.12
6.51
8.66
10.39
11.58
12.21
12.34
12.11
11.67
11.13
10.56
9.99
9.42
8.83
8.19
7.44
6.53
5.44
4.20
2.91
1.66
0.54
-0.44
-1.35
-2.25
-3.16
-4.06
-4.85
-5.45
-5.81
-5.98
-6.00
-5.95
-5.82
-5.64
-5.44
-5.31
-5.38
-5.73
-6.37
-7.25
-8.25
-9.28
-10.27
-11.16
-11.89
-12.34
-12.38
-11.87
-10.76
-9.13
-7.11
-4.91
-2.69
-0.57
1.43
3.26
4.91
6.33
7.44
8.19
8.59
8.68
8.57
8.33
8.00
7.59
7.08
6.47
5.85
5.31
4.97
4.87
5.00
5.21
5.37
5.33
5.05
4.57
3.95
3.30
2.68
2.13
1.66
1.26
0.91
0.56
0.12
-0.47
-1.27
-2.30
-3.50
-4.80
-6.12
-7.37
-8.52
-9.50
-10.27
-10.79
-11.06
-11.07
-10.85
-10.32
-9.39
-7.96
-5.95
-3.46
-0.70
2.03
4.43
6.30
7.58
8.35
8.75
8.90
8.95
8.94
8.89
8.75
8.45
7.95
7.27
6.54
5.92
5.57
5.59
5.94
6.48
6.98
7.20
6.97
6.21
4.99
3.47
1.84
0.23
-1.25
-2.58
-3.75
-4.75
-5.56
-6.19
-6.67
-7.09
-7.57
-8.18
-8.93
-9.74
-10.47
-11.01
-11.24
-11.09
-10.53
-9.54
-8.13
-6.35
-4.32
-2.17
-0.05
1.94
3.73
5.29
6.54
7.37
7.69
7.46
6.81
5.95
5.16
4.68
4.61
4.97
5.63
6.48
7.38
8.25
9.06
9.75
10.30
10.67
10.79
10.60
10.06
9.18
7.99
6.59
5.05
3.43
1.73
-0.03
-1.85
-3.65
-5.36
-6.91
-8.24
-9.37
-10.38
-11.33
-12.29
-13.24
-14.17
-15.03
-15.81
-16.44
-16.85
-16.91
-16.46
-15.38
-13.64
-11.34
-8.64
-5.71
-2.70
0.29
3.13
5.72
7.90
9.58
10.73
11.39
11.66
11.65
11.48
11.26
11.07
10.98
11.02
11.21
11.49
11.81
12.05
12.13
11.97
11.54
10.87
10.05
9.22
8.47
7.85
7.28
6.68
5.89
4.86
3.55
2.01
0.30
-1.47
-3.15
-4.58
-5.62
-6.25
-6.56
-6.76
-7.02
-7.48
-8.17
-8.99
-9.83
-10.57
-11.13
-11.43
-11.42
-11.09
-10.50
-9.75
-8.96
-8.18
-7.31
-6.20
-4.67
-2.71
-0.49
1.68
3.49
4.74
5.42
5.67
5.66
5.54
5.35
5.09
4.77
4.44
4.18
4.07
4.15
4.42
4.81
5.23
5.53
5.58
5.32
4.78
4.05
3.25
2.42
1.48
0.36
-0.97
-2.38
-3.68
-4.62
-5.12
-5.25
-5.19
-5.16
-5.27
-5.53
-5.85
-6.19
-6.55
-6.95
-7.41
-7.93
-8.47
-9.01
-9.56
-10.13
-10.68
-11.09
-11.20
-10.83
-9.87
-8.30
-6.22
-3.78
-1.20
1.28
3.42
5.05
6.08
6.54
6.50
6.12
5.51
4.79
4.04
3.35
2.81
2.58
2.82
3.61
4.98
6.75
8.62
10.23
11.25
11.54
11.16
10.34
9.32
8.30
7.36
6.51
5.80
5.32
5.11
5.19
5.39
5.47
5.21
4.45
3.19
1.55
-0.34
-2.29
-4.20
-5.95
-7.50
-8.87
-10.12
-11.30
-12.42
-13.37
-13.97
-14.01
-13.34
-11.92
-9.82
-7.18
-4.18
-1.00
2.17
5.07
7.49
9.27
10.35
10.81
10.80
10.49
9.97
9.31
8.55
7.77
7.07
6.55
6.24
6.09
5.95
5.72
5.32
4.78
4.18
3.61
3.14
2.75
2.41
2.04
1.60
1.11
0.58
0.08
-0.40
-0.92
-1.56
-2.40
-3.44
-4.58
-5.66
-6.57
-7.28
-7.88
-8.51
-9.30
-10.30
-11.46
-12.68
-13.85
-14.82
-15.45
-15.61
-15.19
-14.15
-12.49
-10.33
-7.81
-5.08
-2.30
0.41
2.94
5.21
7.15
8.72
9.88
10.61
10.96
11.01
10.94
10.92
11.05
11.30
11.54
11.57
11.23
10.50
9.46
8.28
7.10
6.01
5.03
4.13
3.32
2.60
2.00
1.56
1.22
0.88
0.41
-0.35
-1.42
-2.72
-4.04
-5.18
-5.99
-6.51
-6.89
-7.34
-7.97
-8.81
-9.73
-10.64
-11.50
-12.34
-13.25
-14.19
-15.00
-15.41
-15.16
-14.13
-12.37
-10.09
-7.52
-4.85
-2.14
0.52
3.03
5.21
6.84
7.75
7.90
7.44
6.61
5.69
4.91
4.36
4.08
4.04
4.21
4.57
5.05
5.56
6.01
6.28
6.32
6.09
5.62
4.90
3.92
2.69
1.24
-0.32
-1.80
-2.95
-3.58
-3.61
-3.13
-2.39
-1.68
-1.31
-1.41
-1.99
-2.94
-4.12
-5.37
-6.57
-7.56
-8.16
-8.23
-7.70
-6.64
-5.23
-3.65
-2.04
-0.42
1.28
3.05
4.85
6.51
7.82
8.64
8.93
8.76
8.24
7.51
6.69
5.88
5.15
4.59
4.22
4.05
4.03
4.10
4.14
4.04
3.74
3.25
2.66
2.07
1.58
1.19
0.85
0.49
0.01
-0.61
-1.36
-2.16
-2.97
-3.72
-4.39
-4.98
-5.49
-5.97
-6.50
-7.18
-8.09
-9.26
-10.64
-12.09
-13.36
-14.19
-14.31
-13.56
-12.00
-9.87
-7.54
-5.35
-3.47
-1.83
-0.25
1.46
3.30
5.09
6.51
7.31
7.35
6.74
5.69
4.45
3.24
2.22
1.56
1.45
2.00
3.23
4.97
6.88
8.62
9.89
10.61
10.85
10.78
10.52
10.11
9.52
8.68
7.61
6.42
5.23
4.10
3.02
1.94
0.83
-0.24
-1.18
-1.88
-2.36
-2.71
-3.11
-3.69
-4.49
-5.47
-6.52
-7.55
-8.45
-9.11
-9.43
-9.30
-8.68
-7.59
-6.12
-4.36
-2.39
-0.29
1.86
3.94
5.74
7.10
7.91
8.18
8.07
7.76
7.42
7.09
6.78
6.48
6.18
5.90
5.65
5.42
5.18
4.87
4.53
4.22
3.97
3.75
3.44
2.83
1.77
0.27
-1.47
-3.16
-4.57
-5.56
-6.16
-6.49
-6.64
-6.64
-6.51
-6.30
-6.14
-6.15
-6.39
-6.85
-7.41
-7.97
-8.49
-9.02
-9.61
-10.21
-10.67
-10.77
-10.30
-9.20
-7.56
-5.55
-3.33
-0.99
1.45
3.97
6.49
8.75
10.47
11.43
11.62
11.27
10.77
10.51
10.67
11.22
11.95
12.62
13.09
13.36
13.49
13.55
13.53
13.34
12.90
12.16
11.12
9.84
8.36
6.72
4.99
3.28
1.69
0.33
-0.72
-1.50
-2.10
-2.69
-3.42
-4.40
-5.68
-7.21
-8.87
-10.51
-12.00
-13.27
-14.32
-15.23
-16.07
-16.91
-17.76
-18.56
-19.24
-19.72
-19.90
-19.71
-19.13
-18.12
-16.72
-14.99
-13.02
-10.93
-8.83
-6.82
-4.97
-3.37
-2.06
-1.11
-0.54
-0.34
-0.45
-0.78
-1.25
-1.75
-2.24
-2.66
-2.98
-3.14
-3.05
-2.61
-1.72
-0.34
1.49
3.63
5.95
8.32
10.67
13.00
15.31
17.50
19.36
20.62
21.06
20.59
19.34
17.61
15.76
14.11
12.82
11.88
11.18
10.56
9.93
9.24
8.48
7.65
6.74
5.68
4.47
3.08
1.60
0.14
-1.17
-2.18
-2.82
-3.09
-3.02
-2.72
-2.27
-1.69
-0.96
-0.02
1.10
2.31
3.40
4.14
4.40
4.21
3.70
3.03
2.29
1.48
0.54
-0.57
-1.80
-3.03
-4.14
-5.01
-5.58
-5.82
-5.75
-5.45
-5.08
-4.86
-4.97
-5.49
-6.30
-7.14
-7.74
-7.96
-7.82
-7.45
-7.01
-6.54
-5.95
-5.11
-3.95
-2.54
-1.11
0.06
0.82
1.16
1.22
1.16
1.04
0.83
0.46
-0.11
-0.82
-1.54
-2.18
-2.69
-3.09
-3.41
-3.62
-3.61
-3.21
-2.28
-0.81
1.06
3.14
5.20
7.09
8.70
9.93
10.69
10.90
10.53
9.63
8.40
7.05
5.82
4.81
4.02
3.42
2.92
2.50
2.12
1.74
1.25
0.56
-0.33
-1.33
-2.27
-2.99
-3.46
-3.72
-3.97
-4.34
-4.96
-5.80
-6.77
-7.75
-8.60
-9.27
-9.74
-10.08
-10.37
-10.66
-10.97
-11.25
-11.47
-11.62
-11.77
-11.99
-12.32
-12.64
-12.75
-12.34
-11.19
-9.27
-6.71
-3.80
-0.85
1.91
4.37
6.51
8.39
10.05
11.50
12.73
13.66
14.13
14.02
13.22
11.79
9.95
8.06
6.48
5.50
5.18
5.40
5.92
6.47
6.88
7.05
6.99
6.76
6.52
6.45
6.74
7.46
8.51
9.55
10.08
9.66
8.06
5.43
2.23
-0.89
-3.36
-4.88
-5.43
-5.25
-4.69
-4.05
-3.52
-3.23
-3.30
-3.87
-5.07
-6.98
-9.50
-12.28
-14.79
-16.44
-16.82
-15.83
-13.75
-11.08
-8.38
-6.01
-4.12
-2.62
-1.38
-0.28
0.66
1.40
1.85
2.05
2.09
2.14
2.35
2.85
3.62
4.57
5.54
6.37
6.98
7.35
7.57
7.72
7.85
7.93
7.89
7.60
7.00
6.07
4.89
3.57
2.21
0.93
-0.24
-1.29
-2.24
-3.09
-3.81
-4.37
-4.79
-5.12
-5.49
-6.00
-6.75
-7.76
-9.02
-10.53
-12.30
-14.24
-16.18
-17.81
-18.72
-18.60
-17.29
-14.86
-11.57
-7.76
-3.76
0.19
3.90
7.18
9.84
11.73
12.75
12.93
12.43
11.48
10.33
9.24
8.37
7.81
7.54
7.49
7.53
7.56
7.48
7.27
6.97
6.66
6.42
6.29
6.26
6.25
6.18
5.96
5.57
5.04
4.43
3.77
3.03
2.13
0.96
-0.54
-2.28
-4.08
-5.74
-7.14
-8.34
-9.52
-10.87
-12.47
-14.15
-15.63
-16.53
-16.60
-15.74
-14.02
-11.63
-8.75
-5.52
-2.11
1.30
4.45
7.10
9.09
10.41
11.21
11.68
11.99
12.17
12.17
11.87
11.27
10.41
9.46
8.55
7.80
7.23
6.81
6.50
6.28
6.10
5.92
5.68
5.31
4.76
4.05
3.24
2.44
1.76
1.24
0.81
0.32
-0.39
-1.42
-2.71
-4.09
-5.38
-6.43
-7.26
-7.95
-8.63
-9.36
-10.19
-11.10
-12.11
-13.24
-14.47
-15.72
-16.80
-17.49
-17.56
-16.87
-15.41
-13.22
-10.45
-7.28
-3.93
-0.60
2.54
5.34
7.74
9.71
11.21
12.25
12.82
12.97
12.79
12.41
11.96
11.50
11.08
10.70
10.38
10.13
9.93
9.77
9.55
9.22
8.73
8.12
7.46
6.80
6.17
5.51
4.73
3.78
2.64
1.39
0.16
-0.92
-1.71
-2.19
-2.42
-2.55
-2.74
-3.12
-3.75
-4.56
-5.46
-6.36
-7.22
-8.05
-8.92
-9.86
-10.91
-12.00
-13.07
-14.04
-14.83
-15.34
-15.43
-14.94
-13.73
-11.72
-9.02
-5.87
-2.60
0.55
3.43
6.05
8.45
10.61
12.43
13.70
14.28
14.15
13.44
12.36
11.18
10.10
9.25
8.66
8.33
8.17
8.08
7.96
7.77
7.57
7.46
7.52
7.70
7.86
7.77
7.23
6.20
4.80
3.27
1.83
0.63
-0.32
-1.08
-1.75
-2.39
-3.02
-3.67
-4.33
-5.04
-5.84
-6.74
-7.73
-8.75
-9.73
-10.63
-11.50
-12.46
-13.63
-15.05
-16.56
-17.86
-18.54
-18.29
-17.02
-14.87
-12.19
-9.37
-6.69
-4.30
-2.25
-0.51
0.95
2.21
3.35
4.50
5.78
7.23
8.76
10.17
11.19
11.65
11.56
11.05
10.34
9.60
8.89
8.23
7.63
7.18
7.00
7.15
7.55
8.03
8.36
8.36
7.99
7.33
6.50
5.59
4.65
3.69
2.69
1.61
0.43
-0.87
-2.26
-3.62
-4.82
-5.71
-6.28
-6.62
-6.94
-7.45
-8.24
-9.26
-10.35
-11.33
-12.09
-12.64
-13.05
-13.37
-13.58
-13.54
-13.05
-11.95
-10.18
-7.86
-5.23
-2.56
-0.05
2.23
4.29
6.15
7.76
9.01
9.77
10.02
9.84
9.45
9.07
8.83
8.73
8.66
8.47
8.06
7.47
6.83
6.29
5.94
5.73
5.56
5.32
4.97
4.54
4.10
3.66
3.19
2.60
1.82
0.87
-0.10
-0.83
-1.21
-1.31
-1.36
-1.63
-2.33
-3.53
-5.18
-7.06
-8.83
-10.32
-11.38
-12.03
-12.37
-12.63
-13.18
-14.42
-16.53
-19.25
-22.20
-24.63
-25.88
-25.36
-22.72
-18.04
-11.67
-4.06
4.54
13.75
23.76
33.23
40.68
45.64
48.70
50.30
49.75
48.05
44.06
37.60
29.56
21.62
15.46
11.16
8.52
6.69
4.79
2.23
-0.47
-2.36
-2.51
-0.73
2.19
5.04
6.73
6.91
5.71
3.73
1.31
-1.56
-5.08
-9.33
-13.94
-18.25
-21.48
-23.23
-23.40
-22.42
-21.05
-20.17
-20.46
-22.13
-24.88
-27.90
-30.21
-30.87
-29.30
-25.41
-19.50
-12.12
-3.99
4.12
11.46
17.54
22.36
26.50
30.87
36.24
42.71
49.49
55.19
58.36
58.17
54.62
48.41
40.46
31.53
22.06
12.41
3.11
-4.99
-10.87
-13.63
-12.94
-9.13
-3.17
3.62
9.82
14.28
16.32
15.83
13.32
9.73
6.10
3.26
1.53
0.68
0.11
-0.82
-2.44
-4.60
-6.90
-8.93
-10.66
-12.43
-14.69
-17.57
-20.66
-23.11
-24.08
-23.22
-20.93
-18.14
-15.85
-14.65
-14.49
-14.76
-14.68
-13.60
-11.25
-7.73
-3.49
0.82
4.51
6.96
7.82
7.19
5.52
3.51
1.80
0.73
0.32
0.37
0.65
1.03
1.49
2.02
2.52
2.80
2.68
2.13
1.35
0.67
0.39
0.59
1.09
1.55
1.64
1.17
0.21
-1.04
-2.23
-3.11
-3.56
-3.65
-3.65
-3.87
-4.55
-5.76
-7.40
-9.29
-11.31
-13.44
-15.71
-18.04
-20.22
-21.96
-23.05
-23.49
-23.46
-23.19
-22.72
-21.87
-20.32
-17.79
-14.26
-10.04
-5.61
-1.41
2.31
5.51
8.21
10.40
11.94
12.61
12.29
11.02
9.00
6.61
4.24
2.19
0.61
-0.55
-1.41
-2.11
-2.65
-2.94
-2.83
-2.25
-1.41
-0.70
-0.56
-1.32
-3.06
-5.61
-8.66
-11.80
-14.65
-16.90
-18.32
-18.69
-17.90
-16.06
-13.49
-10.63
-7.83
-5.20
-2.84
-0.70
1.26
2.93
3.96
3.94
2.63
0.23
-2.62
-5.58
-8.32
-10.57
-12.20
-13.40
-14.51
-15.75
-16.95
-17.64
-18.28
-19.33
-20.95
-23.02
-25.50
-28.56
-32.32
-36.54
-40.65
-45.52
-51.81
-59.42
-67.49
-75.19
-82.01
-87.52
-91.17
-92.30
-92.52
-93.25
-94.75
-96.36
-97.92
-100.69
-107.11
-119.57
-125.63
-116.38
-89.73
-50.69
-6.39
37.06
74.57
102.57
120.10
129.16
131.99
130.46
125.90
119.47
111.97
104.07
96.77
91.47
89.46
89.87
90.40
90.00
88.90
87.80
87.35
87.86
89.30
91.39
92.68
92.10
89.77
86.62
83.43
80.12
75.83
69.51
60.64
49.18
35.99
22.65
10.54
0.21
-8.69
-16.75
-24.15
-30.50
-35.31
-38.38
-39.91
-40.49
-40.52
-39.94
-38.08
-34.18
-28.08
-20.67
-13.76
-9.23
-8.12
-10.10
-13.66
-16.89
-18.50
-18.22
-16.67
-14.61
-12.20
-8.91
-4.03
2.68
10.52
18.11
24.00
27.39
28.31
27.37
25.24
22.17
17.90
11.90
3.76
-6.50
-18.37
-30.82
-42.56
-52.28
-58.98
-62.21
-62.22
-59.85
-56.25
-52.47
-49.06
-46.01
-42.89
-39.18
-34.61
-29.33
-23.88
-18.85
-14.67
-11.40
-8.79
-6.52
-4.41
-2.58
-1.34
-0.99
-1.62
-2.99
-4.65
-6.13
-7.17
-7.70
-7.86
-7.80
-7.62
-7.36
-7.13
-7.18
-7.77
-9.00
-10.65
-12.21
-13.15
-13.22
-12.75
-12.53
-13.42
-15.94
-20.02
-25.03
-30.13
-34.62
-38.04
-40.14
-40.79
-39.83
-37.18
-33.01
-27.67
-21.62
-15.23
-8.56
-1.53
5.95
13.71
21.18
27.62
32.37
35.21
36.48
36.97
37.52
38.71
40.61
42.80
44.59
45.33
44.56
42.16
38.33
33.57
28.60
24.22
21.15
19.74
19.83
20.71
21.40
21.14
19.70
17.65
16.01
15.66
16.78
18.69
20.15
20.01
17.86
14.22
10.25
7.10
5.31
4.60
4.16
3.24
1.66
-0.10
-1.22
-1.05
0.48
2.72
4.65
5.32
4.28
1.72
-1.65
-4.93
-7.36
-8.59
-8.66
-7.90
-6.72
-5.44
-4.21
-2.97
-1.61
0.01
2.00
4.33
6.90
9.49
11.76
13.24
13.47
12.10
9.09
4.77
-0.17
-4.83
-8.38
-10.22
-10.25
-8.83
-6.65
-4.44
-2.65
-1.24
0.19
2.18
5.04
8.64
12.56
16.46
20.48
25.37
32.18
41.79
54.34
69.14
84.89
100.15
113.71
124.74
132.65
137.00
137.48
134.05
127.06
117.25
105.51
92.60
78.89
64.22
48.13
30.12
10.13
-11.12
-32.02
-50.40
-64.26
-72.59
-75.84
-75.76
-74.54
-73.71
-73.41
-72.53
-69.55
-63.63
-55.25
-46.03
-37.93
-32.50
-30.29
-31.00
-33.93
-38.38
-43.71
-49.20
-53.92
-56.93
-57.59
-55.92
-52.60
-48.72
-45.31
-42.92
-41.36
-39.81
-37.23
-32.79
-26.07
-17.13
-6.50
4.83
15.50
23.99
28.96
29.54
25.46
17.35
6.64
-4.90
-15.73
-25.12
-33.16
-40.73
-49.11
-59.84
-73.56
-89.57
-106.00
-120.64
-131.61
-137.71
-138.62
-134.98
-128.67
-121.78
-115.55
-109.76
-102.98
-93.50
-80.28
-63.96
-46.88
-32.40
-22.40
-16.12
-11.24
-5.78
0.74
8.01
15.82
27.01
40.80
52.00
54.68
46.88
33.07
19.31
11.64
14.28
28.36
51.54
79.15
106.24
128.92
144.99
153.70
155.78
153.00
147.64
141.73
137.55
137.56
143.65
156.70
175.82
198.01
218.13
229.76
227.20
208.05
174.44
131.42
85.40
41.71
3.12
-30.74
-62.29
-94.02
-126.65
-158.35
-186.13
-205.51
-211.70
-201.65
-176.20
-140.38
-101.52
-66.69
-40.86
-27.55
-27.49
-38.71
-57.65
-80.57
-103.58
-122.46
-133.29
-125.93
-98.57
-60.83
-26.54
-3.53
8.23
12.82
14.04
14.67
15.59
15.42
13.19
9.57
6.21
4.56
4.66
5.81
7.31
8.67
8.83
7.47
5.46
4.12
4.00
4.65
5.27
5.40
5.02
3.86
2.09
0.42
-0.43
-0.37
0.02
0.00
-0.76
-2.08
-3.70
-5.05
-5.32
-3.88
-0.60
4.03
9.25
14.28
18.47
21.33
22.77
23.10
22.95
22.87
23.13
23.69
24.23
24.40
24.01
23.09
21.92
20.77
19.82
19.03
18.21
17.12
15.63
13.77
11.73
9.73
7.90
6.23
4.67
3.16
1.73
0.51
-0.38
-0.96
-1.38
-1.85
-2.51
-3.30
-4.00
-4.35
-4.23
-3.77
-3.31
-3.27
-3.95
-5.48
-7.75
-10.51
-13.41
-16.07
-18.09
-19.14
-19.01
-17.71
-15.43
-12.57
-9.57
-6.74
-4.27
-2.13
-0.15
1.91
4.17
6.69
9.37
11.99
14.31
16.15
17.42
18.18
18.59
18.78
18.87
18.86
18.78
18.64
18.53
18.55
18.70
18.88
18.89
18.52
17.71
16.50
15.05
13.47
11.78
9.90
7.70
5.11
2.22
-0.77
-3.58
-5.96
-7.77
-9.03
-9.90
-10.62
-11.41
-12.40
-13.62
-15.00
-16.41
-17.66
-18.52
-18.76
-18.13
-16.51
-13.96
-10.72
-7.21
-3.82
-0.83
1.71
3.89
5.84
7.62
9.17
10.37
11.10
11.34
11.20
10.87
10.52
10.26
10.06
9.87
9.61
9.24
8.81
8.38
7.96
7.52
6.98
6.29
5.44
4.52
3.62
2.78
1.96
1.09
0.09
-1.04
-2.22
-3.37
-4.43
-5.40
-6.36
-7.44
-8.78
-10.44
-12.33
-14.14
-15.43
-15.76
-14.89
-12.86
-10.06
-7.00
-4.16
-1.81
0.05
1.55
2.85
4.04
5.12
6.02
6.66
7.00
7.04
6.80
6.38
5.90
5.49
5.26
5.24
5.38
5.59
5.76
5.81
5.69
5.41
4.97
4.37
3.62
2.74
1.74
0.64
-0.54
-1.76
-2.98
-4.12
-5.11
-5.90
-6.50
-7.01
-7.56
-8.28
-9.26
-10.44
-11.69
-12.78
-13.43
-13.44
-12.69
-11.19
-9.08
-6.60
-4.04
-1.61
0.51
2.26
3.65
4.74
5.57
6.20
6.68
7.01
7.18
7.16
6.96
6.61
6.24
5.99
5.94
6.07
6.30
6.49
6.55
6.46
6.26
6.00
5.65
5.13
4.41
3.48
2.39
1.26
0.13
-1.00
-2.16
-3.35
-4.51
-5.46
-6.07
-6.24
-6.05
-5.67
-5.33
-5.21
-5.45
-6.04
-6.94
-7.98
-8.91
-9.43
-9.26
-8.28
-6.58
-4.47
-2.34
-0.51
0.88
1.87
2.59
3.18
3.66
4.03
4.28
4.46
4.65
4.94
5.35
5.86
6.36
6.77
7.01
7.07
6.93
6.63
6.20
5.72
5.27
4.91
4.62
4.31
3.88
3.32
2.67
2.06
1.54
1.09
0.55
-0.31
-1.63
-3.37
-5.36
-7.32
-9.07
-10.53
-11.79
-13.01
-14.32
-15.76
-17.29
-18.76
-19.97
-20.71
-20.78
-20.09
-18.69
-16.75
-14.52
-12.21
-9.91
-7.59
-5.14
-2.49
0.31
3.09
5.60
7.66
9.16
10.13
10.69
10.95
10.98
10.87
10.69
10.49
10.30
10.11
9.82
9.36
8.72
8.02
7.41
7.06
7.02
7.20
7.45
7.56
7.44
7.06
6.48
5.80
5.04
4.21
3.29
2.29
1.29
0.33
-0.57
-1.46
-2.46
-3.71
-5.20
-6.81
-8.22
-9.09
-9.13
-8.25
-6.58
-4.40
-2.07
0.11
1.93
3.32
4.25
4.80
5.07
5.17
5.22
5.24
5.21
5.08
4.85
4.58
4.43
4.51
4.89
5.47
6.06
6.49
6.66
6.58
6.32
5.94
5.46
4.87
4.15
3.36
2.57
1.83
1.16
0.48
-0.31
-1.28
-2.39
-3.55
-4.59
-5.40
-5.95
-6.33
-6.69
-7.18
-7.91
-8.90
-10.05
-11.17
-12.03
-12.38
-11.99
-10.74
-8.66
-5.90
-2.76
0.40
3.28
5.65
7.44
8.70
9.55
10.13
10.51
10.71
10.73
10.54
10.15
9.60
8.98
8.36
7.83
7.38
6.96
6.44
5.64
4.34
2.35
-0.46
-4.14
-8.56
-13.51
-18.61
-23.46
-27.64
-30.82
-32.80
-33.54
-33.17
-31.91
-30.04
-27.76
-25.17
-22.22
-18.81
-14.90
-10.57
-6.06
-1.64
2.45
6.06
9.19
11.93
14.38
16.60
18.66
20.57
22.34
23.98
25.45
26.76
27.87
28.78
29.48
29.96
30.23
30.28
30.10
29.71
29.12
28.35
27.44
26.44
25.41
24.35
23.25
22.00
20.51
18.71
16.58
14.18
11.61
8.90
6.05
3.08
0.05
-2.92
-5.63
-7.94
-9.81
-11.30
-12.47
-13.37
-13.92
-13.99
-13.46
-12.36
-10.86
-9.20
-7.63
-6.24
-5.03
-3.85
-2.51
-0.85
1.27
3.90
6.96
10.26
13.50
16.37
18.61
20.11
20.87
21.00
20.63
19.82
18.58
16.92
14.92
12.72
10.49
8.36
6.40
4.57
2.78
1.02
-0.67
-2.15
-3.23
-3.81
-3.84
-3.38
-2.53
-1.43
-0.16
1.25
2.83
4.64
6.69
8.91
11.07
12.88
14.03
14.28
13.55
11.87
9.35
6.11
2.26
-2.06
-6.73
-11.63
-16.71
-21.95
-27.35
-32.83
-38.15
-42.95
-46.82
-49.42
-50.56
-50.31
-48.86
-46.51
-43.56
-40.26
-36.80
-33.31
-29.86
-26.43
-22.97
-19.40
-15.66
-11.75
-7.70
-3.62
0.38
4.21
7.79
11.09
14.08
16.78
19.21
21.31
23.00
24.09
24.38
23.69
21.94
19.16
15.55
11.39
7.02
2.75
-1.16
-4.59
-7.53
-10.05
-12.24
-14.16
-15.82
-17.16
-18.06
-18.36
-17.89
-16.54
-14.31
-11.35
-7.98
-4.57
-1.43
1.28
3.60
5.65
7.52
9.19
10.53
11.36
11.61
11.28
10.45
9.24
7.70
5.90
3.92
1.94
0.18
-1.20
-2.10
-2.61
-2.88
-3.11
-3.45
-3.90
-4.41
-4.87
-5.20
-5.40
-5.48
-5.51
-5.55
-5.61
-5.67
-5.73
-5.76
-5.81
-5.96
-6.29
-6.82
-7.42
-7.86
-7.87
-7.25
-6.00
-4.27
-2.36
-0.53
1.04
2.34
3.37
4.16
4.70
4.93
4.86
4.56
4.14
3.75
3.45
3.25
3.09
2.92
2.70
2.44
2.14
1.84
1.52
1.15
0.68
0.09
-0.67
-1.59
-2.63
-3.72
-4.79
-5.75
-6.55
-7.20
-7.68
-8.05
-8.32
-8.53
-8.70
-8.81
-8.85
-8.76
-8.44
-7.74
-6.51
-4.64
-2.16
0.75
3.78
6.54
8.76
10.30
11.21
11.69
11.98
12.24
12.54
12.79
12.90
12.79
12.48
12.05
11.61
11.23
10.94
10.70
10.49
10.30
10.17
10.11
10.10
10.04
9.82
9.32
8.50
7.38
6.04
4.62
3.24
2.00
0.93
-0.02
-0.94
-1.92
-3.00
-4.20
-5.51
-6.93
-8.46
-10.05
-11.53
-12.66
-13.18
-12.93
-11.94
-10.46
-8.82
-7.33
-6.15
-5.33
-4.85
-4.72
-4.95
-5.53
-6.38
-7.38
-8.35
-9.16
-9.72
-9.96
-9.76
-9.00
-7.58
-5.45
-2.71
0.43
3.76
7.07
10.24
13.19
15.81
17.94
19.38
19.95
19.57
18.32
16.38
13.99
11.38
8.69
5.99
3.26
0.49
-2.35
-5.22
-8.05
-10.65
-12.80
-14.30
-14.99
-14.80
-13.82
-12.21
-10.19
-8.01
-5.86
-3.88
-2.11
-0.54
0.91
2.28
3.59
4.79
5.81
6.65
7.33
7.90
8.37
8.74
8.93
8.94
8.78
8.50
8.15
7.70
7.08
6.17
4.91
3.31
1.45
-0.53
-2.51
-4.40
-6.16
-7.79
-9.29
-10.65
-11.77
-12.54
-12.83
-12.60
-11.91
-10.95
-9.97
-9.20
-8.73
-8.50
-8.25
-7.68
-6.51
-4.63
-2.17
0.54
3.10
5.14
6.52
7.29
7.64
7.83
7.99
8.16
8.26
8.22
7.96
7.49
6.83
6.01
5.08
4.15
3.36
2.85
2.69
2.83
3.08
3.24
3.16
2.80
2.27
1.76
1.38
1.20
1.18
1.22
1.24
1.16
0.92
0.43
-0.32
-1.32
-2.47
-3.58
-4.49
-5.08
-5.36
-5.52
-5.78
-6.34
-7.21
-8.25
-9.14
-9.57
-9.31
-8.29
-6.66
-4.68
-2.63
-0.70
1.02
2.54
3.94
5.28
6.52
7.53
8.14
8.24
7.86
7.18
6.48
5.98
5.76
5.76
5.83
5.84
5.74
5.58
5.40
5.20
4.88
4.35
3.55
2.53
1.43
0.37
-0.58
-1.41
-2.19
-2.97
-3.76
-4.51
-5.15
-5.64
-5.94
-6.10
-6.16
-6.23
-6.40
-6.78
-7.45
-8.39
-9.55
-10.76
-11.81
-12.43
-12.42
-11.68
-10.25
-8.32
-6.17
-4.04
-2.14
-0.59
0.55
1.22
1.37
1.02
0.24
-0.78
-1.85
-2.79
-3.54
-4.18
-4.89
-5.91
-7.43
-9.53
-12.05
-14.67
-16.94
-18.53
-19.40
-19.83
-20.26
-20.94
-21.75
-22.17
-21.65
-19.91
-17.17
-14.09
-11.50
-10.03
-9.76
-10.05
-9.58
-6.47
1.13
14.44
33.58
57.19
82.60
106.34
124.79
134.88
134.77
124.63
106.85
85.65
65.66
50.13
39.65
32.20
24.78
15.52
5.00
-4.10
-8.86
-8.19
-3.66
1.37
3.74
2.23
-2.18
-7.27
-11.22
-13.60
-15.20
-16.99
-19.17
-20.80
-20.17
-15.88
-7.73
2.94
13.56
21.24
23.84
20.78
13.24
3.79
-4.58
-9.56
-10.24
-7.23
-2.18
3.09
7.33
10.17
12.00
13.50
15.18
17.25
19.63
22.07
24.32
26.16
27.55
28.61
29.71
31.22
33.31
35.69
37.59
37.96
35.86
30.72
22.65
12.35
0.99
-10.06
-19.64
-27.18
-32.87
-37.67
-42.82
-49.15
-56.42
-63.25
-67.71
-68.34
-65.33
-60.99
-59.16
-64.02
-78.40
-102.41
-133.05
-164.83
-191.49
-207.98
-211.82
-203.18
-183.82
-155.84
-121.04
-80.90
-36.87
9.33
55.75
100.45
141.48
176.76
203.94
220.45
224.12
213.93
190.76
157.53
118.90
80.29
46.75
22.00
7.64
2.84
4.75
9.49
13.67
15.73
16.32
17.67
22.37
32.09
46.75
64.30
80.94
91.78
91.81
77.35
47.64
5.78
-41.69
-86.73
-122.63
-146.29
-158.91
-164.70
-168.19
-171.76
-174.71
-174.32
-168.20
-156.44
-142.07
-129.60
-122.69
-122.34
-126.46
-131.07
-132.07
-126.42
-112.48
-89.80
-58.68
-20.42
22.31
65.15
102.72
129.92
143.66
143.88
133.46
116.99
99.05
82.86
69.66
59.15
50.23
41.71
32.68
22.48
10.58
-3.27
-18.88
-35.41
-51.35
-64.84
-74.23
-78.64
-78.24
-74.04
-67.29
-58.63
-47.70
-33.44
-15.17
6.32
28.32
46.97
58.86
62.67
59.77
53.41
46.99
42.36
39.18
35.73
30.42
23.02
14.82
7.76
3.38
2.05
3.11
5.45
8.21
11.03
14.03
17.40
21.22
25.49
30.33
36.15
43.57
52.89
63.56
73.84
81.02
82.27
75.73
61.38
41.24
18.93
-1.39
-16.21
-23.68
-23.99
-19.12
-11.94
-5.23
-0.72
1.22
1.33
0.85
0.91
2.13
4.48
7.50
10.38
12.27
12.41
10.29
5.75
-0.88
-8.84
-17.14
-24.80
-31.05
-35.25
-36.95
-36.02
-32.88
-28.53
-24.32
-21.50
-20.81
-22.14
-24.31
-25.53
-24.38
-20.57
-15.06
-9.44
-5.18
-2.98
-2.75
-3.25
-2.89
-0.99
1.65
3.05
1.39
-4.24
-13.41
-24.70
-35.35
-42.40
-44.30
-41.83
-37.69
-34.70
-34.88
-38.83
-45.99
-53.89
-59.11
-58.82
-51.57
-37.25
-16.18
10.39
42.42
72.97
92.51
96.41
88.09
76.63
67.33
61.98
59.59
57.63
53.35
46.16
37.84
31.06
27.69
27.93
31.06
35.58
39.47
40.26
36.49
27.95
15.19
-0.73
-18.16
-34.49
-47.07
-54.20
-55.74
-52.43
-45.31
-35.73
-25.32
-15.90
-9.06
-6.03
-7.53
-13.52
-22.73
-32.98
-41.98
-48.18
-51.14
-51.22
-49.18
-45.79
-41.62
-36.87
-31.44
-25.19
-18.09
-10.23
-1.80
6.82
15.04
22.13
27.41
30.47
31.39
30.70
29.19
27.75
27.18
28.10
30.86
35.51
41.60
48.18
53.90
57.34
57.45
53.98
47.58
39.50
31.16
23.55
16.90
10.70
4.03
-3.81
-12.85
-22.15
-30.08
-34.80
-35.00
-30.34
-21.56
-10.18
2.00
13.37
22.76
29.46
33.06
33.42
30.64
25.09
17.44
8.59
-0.57
-9.25
-16.93
-23.34
-28.36
-31.92
-33.87
-34.01
-32.24
-28.74
-23.99
-18.75
-13.84
-9.81
-6.80
-4.56
-2.62
-0.57
1.76
4.31
6.84
9.10
10.87
11.94
12.15
11.33
9.43
6.64
3.47
0.57
-1.44
-2.22
-1.86
-0.79
0.44
1.35
1.80
1.88
1.85
1.94
2.31
2.99
4.05
5.49
7.26
9.16
10.90
12.08
12.43
11.83
10.37
8.21
5.62
2.83
0.10
-2.27
-3.96
-4.74
-4.53
-3.47
-1.84
0.03
1.90
3.73
5.58
7.61
9.87
12.34
14.80
16.95
18.47
19.13
18.82
17.61
15.75
13.55
11.36
9.43
7.88
6.68
5.68
4.73
3.74
2.73
1.76
0.94
0.29
-0.24
-0.70
-1.14
-1.55
-1.85
-1.97
-1.92
-1.75
-1.62
-1.67
-1.99
-2.58
-3.40
-4.32
-5.28
-6.22
-7.17
-8.18
-9.30
-10.54
-11.83
-13.01
-13.83
-14.01
-13.31
-11.63
-9.08
-5.95
-2.65
0.45
3.10
5.22
6.95
8.49
10.05
11.81
13.81
15.90
17.72
18.75
18.46
16.54
13.12
8.80
4.49
1.16
-0.59
-0.66
0.55
2.33
4.02
5.17
5.62
5.40
4.69
3.67
2.63
1.85
1.59
1.90
2.55
3.07
2.90
1.66
-0.64
-3.62
-6.69
-9.28
-11.05
-11.98
-12.30
-12.35
-12.45
-12.84
-13.66
-14.93
-16.50
-18.11
-19.37
-19.93
-19.46
-17.85
-15.17
-11.67
-7.69
-3.62
0.17
3.39
5.89
7.65
8.80
9.56
10.13
10.57
10.80
10.64
9.96
8.79
7.31
5.82
4.55
3.62
2.99
2.53
2.07
1.51
0.82
0.05
-0.70
-1.28
-1.54
-1.40
-0.84
0.05
1.09
2.08
2.83
3.20
3.12
2.59
1.68
0.53
-0.77
-2.16
-3.65
-5.30
-7.14
-9.17
-11.23
-13.08
-14.46
-15.10
-14.88
-13.77
-11.91
-9.51
-6.84
-4.09
-1.45
1.02
3.30
5.41
7.33
9.06
10.54
11.73
12.57
13.03
13.12
12.90
12.49
12.04
11.68
11.45
11.33
11.22
11.03
10.75
10.39
10.00
9.62
9.22
8.73
8.09
7.24
6.18
4.92
3.49
1.94
0.33
-1.25
-2.73
-4.09
-5.35
-6.59
-7.88
-9.23
-10.51
-11.56
-12.16
-12.22
-11.73
-10.82
-9.66
-8.40
-7.12
-5.86
-4.69
-3.70
-3.00
-2.64
-2.55
-2.51
-2.16
-1.24
0.36
2.46
4.64
6.41
7.44
7.63
7.15
6.33
5.48
4.78
4.30
4.01
3.90
3.99
4.32
4.90
5.68
6.55
7.41
8.16
8.75
9.18
9.47
9.64
9.70
9.60
9.23
8.49
7.30
5.70
3.84
1.94
0.20
-1.30
-2.62
-3.89
-5.21
-6.58
-7.89
-8.97
-9.76
-10.30
-10.76
-11.35
-12.13
-12.98
-13.63
-13.75
-13.12
-11.74
-9.81
-7.67
-5.59
-3.70
-1.93
-0.15
1.77
3.78
5.64
7.02
7.65
7.44
6.58
5.45
4.46
3.89
3.83
4.13
4.54
4.83
4.88
4.76
4.62
4.58
4.65
4.69
4.50
3.97
3.11
2.08
1.07
0.23
-0.43
-0.97
-1.49
-2.05
-2.63
-3.17
-3.66
-4.13
-4.66
-5.29
-6.02
-6.80
-7.55
-8.21
-8.76
-9.25
-9.71
-10.17
-10.63
-11.06
-11.38
-11.47
-11.18
-10.38
-8.99
-7.05
-4.72
-2.27
0.08
2.13
3.82
5.17
6.15
6.70
6.73
6.23
5.31
4.22
3.25
2.60
2.31
2.34
2.58
2.96
3.42
3.91
4.36
4.73
5.08
5.60
6.52
7.93
9.61
11.06
11.69
11.06
9.09
6.11
2.68
-0.64
-3.46
-5.60
-7.09
-8.04
-8.63
-9.06
-9.53
-10.22
-11.18
-12.37
-13.66
-14.84
-15.64
-15.86
-15.33
-13.97
-11.89
-9.35
-6.73
-4.39
-2.54
-1.15
-0.02
1.11
2.40
3.83
5.23
6.40
7.17
7.49
7.45
7.17
6.78
6.35
5.97
5.73
5.73
6.07
6.76
7.68
8.60
9.19
9.16
8.32
6.67
4.43
1.99
-0.20
-1.77
-2.63
-2.94
-3.07
-3.44
-4.28
-5.59
-7.13
-8.67
-10.02
-11.23
-12.37
-13.53
-14.66
-15.63
-16.32
-16.65
-16.69
-16.47
-15.97
-15.07
-13.58
-11.36
-8.44
-5.01
-1.38
2.16
5.43
8.36
10.93
13.04
14.54
15.19
14.85
13.61
11.79
9.88
8.34
7.40
7.04
7.02
7.04
6.92
6.62
6.20
5.73
5.19
4.49
3.55
2.35
1.03
-0.17
-0.99
-1.27
-1.08
-0.63
-0.22
-0.08
-0.30
-0.83
-1.57
-2.42
-3.41
-4.55
-5.83
-7.15
-8.35
-9.28
-9.87
-10.15
-10.20
-10.14
-10.09
-10.16
-10.51
-11.21
-12.23
-13.34
-14.13
-14.19
-13.22
-11.18
-8.36
-5.23
-2.32
-0.05
1.37
2.04
2.23
2.36
2.74
3.56
4.78
6.28
7.85
9.33
10.61
11.56
12.05
12.00
11.42
10.50
9.52
8.75
8.30
8.05
7.68
6.91
5.58
3.81
1.93
0.29
-0.88
-1.54
-1.83
-1.96
-2.05
-2.11
-2.03
-1.68
-1.00
-0.05
1.00
1.92
2.49
2.56
2.03
0.89
-0.79
-2.84
-5.02
-7.03
-8.58
-9.43
-9.45
-8.61
-7.07
-5.04
-2.82
-0.67
1.25
2.91
4.43
5.95
7.58
9.31
11.01
12.52
13.67
14.43
14.81
14.85
14.51
13.74
12.50
10.85
9.02
7.33
6.05
5.29
4.92
4.71
4.37
3.80
3.02
2.18
1.47
1.00
0.80
0.87
1.13
1.55
2.05
2.55
2.98
3.22
3.21
2.84
2.01
0.64
-1.30
-3.71
-6.33
-8.81
-10.89
-12.47
-13.69
-14.82
-16.10
-17.53
-18.83
-19.52
-19.08
-17.14
-13.76
-9.30
-4.43
0.14
3.85
6.37
7.70
8.05
7.80
7.31
6.89
6.71
6.75
6.86
6.76
6.20
5.12
3.64
2.14
1.06
0.86
1.84
4.13
7.65
12.13
17.10
22.03
26.45
30.11
32.98
35.15
36.63
37.19
36.35
33.58
28.58
21.46
12.78
3.33
-6.10
-14.90
-22.71
-29.38
-34.88
-39.28
-42.58
-44.83
-46.02
-46.19
-45.47
-44.11
-42.45
-40.74
-39.04
-37.15
-34.71
-31.40
-27.23
-22.52
-17.86
-13.81
-10.67
-8.38
-6.60
-4.96
-3.26
-1.44
0.43
2.34
4.41
6.82
9.68
12.82
15.82
18.12
19.24
19.04
17.78
16.02
14.39
13.32
12.94
13.09
13.42
13.61
13.41
12.76
11.69
10.35
8.88
7.41
6.00
4.62
3.21
1.66
-0.03
-1.82
-3.56
-5.11
-6.41
-7.43
-8.24
-8.93
-9.58
-10.26
-11.00
-11.76
-12.46
-12.92
-12.93
-12.34
-11.14
-9.50
-7.68
-5.94
-4.41
-3.04
-1.66
-0.06
1.83
3.90
5.85
7.35
8.20
8.45
8.49
8.90
10.26
12.83
16.45
20.47
24.04
26.42
27.26
26.67
25.08
23.01
20.85
18.84
17.10
15.71
14.71
14.12
13.88
13.85
13.97
14.22
14.65
15.26
15.88
16.26
16.12
15.38
14.12
12.56
10.84
8.93
6.62
3.69
0.13
-3.85
-7.81
-11.34
-14.16
-16.23
-17.66
-18.61
-19.15
-19.27
-18.90
-18.01
-16.64
-14.89
-12.92
-10.90
-9.01
-7.41
-6.20
-5.38
-4.82
-4.34
-3.79
-3.07
-2.23
-1.35
-0.51
0.33
1.28
2.45
3.81
5.17
6.22
6.71
6.54
5.84
4.91
4.00
3.21
2.47
1.65
0.65
-0.51
-1.70
-2.82
-3.84
-4.84
-5.87
-6.89
-7.79
-8.45
-8.83
-9.01
-9.17
-9.49
-10.02
-10.70
-11.40
-12.07
-12.71
-13.34
-13.95
-14.40
-14.56
-14.27
-13.52
-12.36
-10.95
-9.42
-7.73
-5.76
-3.40
-0.69
2.11
4.66
6.59
7.58
7.53
6.70
5.59
4.73
4.40
4.65
5.28
5.99
6.13
5.27
3.44
1.23
-0.59
-1.51
-1.46
-0.70
0.21
0.24
-1.34
-4.48
-8.26
-11.49
-13.41
-13.90
-13.29
-12.35
-12.68
-15.74
-22.19
-31.61
-42.74
-53.92
-63.19
-68.24
-64.07
-48.54
-24.80
-0.20
18.53
29.03
32.94
32.34
29.22
25.04
19.38
12.41
4.97
-1.50
-5.68
-7.12
-6.34
-4.15
-1.30
1.42
3.86
6.46
9.96
14.77
20.66
27.11
33.93
41.25
48.70
55.17
58.85
57.94
51.53
40.37
26.87
14.32
5.31
0.52
-1.28
-2.34
-4.64
-9.04
-15.23
-22.21
-28.88
-34.45
-38.33
-39.90
-38.51
-33.80
-25.92
-15.63
-3.95
8.10
19.66
30.31
39.82
47.90
54.15
58.31
60.52
61.54
62.26
63.02
63.75
63.87
62.52
58.80
52.06
42.00
28.82
12.76
-5.79
-25.53
-44.26
-59.51
-69.58
-74.34
-75.36
-75.11
-74.08
-73.21
-73.01
-73.08
-72.17
-69.16
-63.73
-57.96
-51.98
-45.93
-40.31
-35.37
-31.20
-27.75
-24.80
-22.42
-20.64
-19.16
-18.01
-17.38
-16.87
-15.42
-11.60
-4.16
7.32
22.25
39.27
56.28
71.08
82.14
88.79
91.20
90.11
86.56
81.71
76.54
71.33
65.70
59.02
50.98
41.93
32.77
24.46
17.59
12.02
7.03
1.91
-3.46
-8.51
-12.23
-13.92
-13.64
-12.23
-10.94
-10.85
-12.46
-15.56
-19.41
-23.19
-26.34
-28.71
-30.43
-31.77
-32.86
-33.62
-33.85
-33.33
-32.02
-30.11
-28.05
-26.37
-25.50
-25.53
-26.20
-26.96
-27.12
-26.11
-23.68
-20.02
-15.64
-11.15
-7.01
-3.46
-0.52
1.92
3.96
5.62
6.84
7.53
7.59
7.08
6.13
4.96
3.81
2.94
2.52
2.62
3.10
3.75
4.44
4.93
5.01
4.49
3.34
1.83
0.48
-0.23
0.22
2.18
5.44
9.37
13.16
16.18
18.14
19.02
18.68
17.24
15.13
12.69
10.25
8.15
6.74
6.55
8.37
13.07
20.04
28.41
36.42
41.77
42.27
36.73
25.64
12.95
0.40
-10.39
-18.13
-22.44
-23.57
-22.03
-18.45
-13.55
-8.48
-5.02
-4.54
-7.58
-13.66
-21.40
-29.02
-35.06
-38.79
-40.37
-40.54
-39.57
-37.08
-32.50
-25.61
-17.07
-8.34
-1.17
3.20
4.46
3.53
1.95
0.96
1.12
2.30
4.05
6.11
8.51
11.43
15.00
19.03
23.01
26.34
28.62
29.78
29.98
29.50
28.43
26.81
24.55
21.64
18.21
14.55
11.02
7.99
5.73
4.42
4.16
4.96
6.72
9.18
11.98
14.63
16.67
17.83
17.99
17.27
15.93
14.34
12.84
11.65
10.83
10.21
9.50
8.43
6.94
5.21
3.59
2.35
1.52
0.77
-0.42
-2.60
-6.12
-11.10
-17.46
-24.89
-32.74
-40.01
-45.51
-48.18
-47.55
-44.01
-38.65
-32.84
-27.74
-23.96
-21.57
-20.36
-20.13
-20.80
-22.24
-24.03
-25.30
-24.82
-21.40
-14.31
-3.70
9.27
22.66
34.32
42.56
46.64
46.88
44.34
40.33
35.84
31.41
27.16
23.12
19.46
16.49
14.47
13.45
13.07
12.76
11.93
10.28
7.91
5.27
2.87
1.08
-0.10
-0.96
-1.92
-3.29
-5.14
-7.29
-9.42
-11.28
-12.72
-13.78
-14.57
-15.19
-15.64
-15.81
-15.55
-14.75
-13.48
-11.91
-10.28
-8.79
-7.51
-6.43
-5.48
-4.60
-3.78
-3.03
-2.32
-1.57
-0.70
0.37
1.65
3.07
4.49
5.75
6.67
7.11
7.01
6.46
5.64
4.86
4.34
4.16
4.19
4.18
3.88
3.18
2.17
1.12
0.30
-0.13
-0.16
0.03
0.24
0.28
0.08
-0.33
-0.90
-1.57
-2.29
-3.04
-3.77
-4.45
-5.04
-5.57
-6.12
-6.74
-7.47
-8.29
-9.11
-9.83
-10.38
-10.68
-10.70
-10.33
-9.52
-8.23
-6.54
-4.65
-2.82
-1.28
-0.13
0.65
1.19
1.65
2.13
2.63
3.11
3.49
3.77
4.02
4.33
4.79
5.45
6.25
7.09
7.85
8.43
8.81
9.01
9.06
8.95
8.66
8.19
7.55
6.84
6.12
5.45
4.82
4.24
3.71
3.25
2.91
2.70
2.55
2.36
2.05
1.55
0.85
-0.03
-1.08
-2.30
-3.66
-5.07
-6.37
-7.40
-8.13
-8.62
-9.05
-9.61
-10.38
-11.33
-12.36
-13.33
-14.12
-14.65
-14.86
-14.68
-14.04
-12.92
-11.37
-9.51
-7.47
-5.43
-3.50
-1.78
-0.30
0.91
1.89
2.69
3.37
3.96
4.43
4.72
4.78
4.61
4.27
3.90
3.64
3.59
3.75
4.05
4.36
4.55
4.54
4.38
4.16
4.03
4.03
4.12
4.22
4.21
4.05
3.69
3.15
2.41
1.46
0.33
-0.87
-1.96
-2.76
-3.19
-3.28
-3.19
-3.10
-3.15
-3.37
-3.75
-4.22
-4.77
-5.37
-6.01
-6.65
-7.24
-7.72
-8.11
-8.46
-8.88
-9.45
-10.14
-10.83
-11.30
-11.36
-10.89
-9.91
-8.51
-6.83
-5.01
-3.13
-1.28
0.48
2.08
3.47
4.65
5.63
6.42
7.03
7.47
7.76
7.95
8.07
8.10
8.00
7.74
7.30
6.76
6.25
5.85
5.58
5.39
5.20
4.96
4.67
4.36
4.03
3.70
3.36
3.03
2.76
2.58
2.46
2.30
1.96
1.37
0.57
-0.27
-0.97
-1.42
-1.63
-1.74
-1.94
-2.32
-2.88
-3.53
-4.14
-4.67
-5.13
-5.63
-6.33
-7.30
-8.49
-9.71
-10.69
-11.19
-11.08
-10.37
-9.19
-7.68
-5.96
-4.09
-2.16
-0.27
1.42
2.77
3.73
4.39
4.88
5.32
5.74
6.05
6.13
5.94
5.50
4.98
4.54
4.30
4.33
4.59
4.99
5.43
5.78
5.96
5.93
5.70
5.33
4.88
4.42
3.99
3.60
3.21
2.83
2.42
1.98
1.51
0.96
0.32
-0.44
-1.31
-2.22
-3.10
-3.88
-4.53
-5.11
-5.73
-6.46
-7.36
-8.36
-9.37
-10.31
-11.14
-11.89
-12.53
-13.03
-13.28
-13.14
-12.56
-11.54
-10.17
-8.58
-6.85
-5.06
-3.21
-1.33
0.55
2.37
4.03
5.44
6.52
7.23
7.59
7.64
7.49
7.19
6.81
6.40
6.02
5.73
5.62
5.74
6.10
6.60
7.09
7.38
7.36
7.02
6.45
5.85
5.36
5.05
4.85
4.63
4.23
3.57
2.68
1.68
0.72
-0.08
-0.69
-1.14
-1.57
-2.07
-2.71
-3.50
-4.35
-5.17
-5.87
-6.44
-6.97
-7.60
-8.39
-9.34
-10.33
-11.20
-11.82
-12.16
-12.24
-12.06
-11.62
-10.83
-9.60
-7.89
-5.74
-3.31
-0.78
1.66
3.87
5.80
7.44
8.78
9.78
10.42
10.65
10.48
10.00
9.34
8.65
8.05
7.63
7.40
7.38
7.53
7.78
8.06
8.25
8.27
8.08
7.68
7.14
6.54
5.93
5.34
4.75
4.12
3.43
2.69
1.99
1.43
1.08
0.89
0.74
0.44
-0.13
-0.97
-1.95
-2.89
-3.64
-4.20
-4.66
-5.14
-5.71
-6.32
-6.90
-7.41
-7.87
-8.39
-9.07
-9.92
-10.79
-11.46
-11.65
-11.19
-10.05
-8.37
-6.36
-4.29
-2.30
-0.45
1.30
3.04
4.79
6.51
8.08
9.32
10.09
10.33
10.05
9.36
8.43
7.48
6.67
6.14
5.93
5.99
6.19
6.39
6.47
6.40
6.16
5.76
5.23
4.59
3.93
3.33
2.90
2.67
2.61
2.59
2.44
2.02
1.31
0.39
-0.58
-1.47
-2.19
-2.72
-3.11
-3.39
-3.57
-3.69
-3.79
-3.99
-4.40
-5.11
-6.09
-7.21
-8.31
-9.25
-10.04
-10.74
-11.44
-12.13
-12.66
-12.74
-12.16
-10.79
-8.74
-6.25
-3.60
-1.03
1.31
3.37
5.11
6.46
7.36
7.78
7.80
7.56
7.26
7.01
6.87
6.76
6.60
6.35
6.02
5.69
5.45
5.34
5.33
5.37
5.39
5.38
5.33
5.24
5.06
4.72
4.22
3.58
2.90
2.25
1.65
1.07
0.47
-0.17
-0.78
-1.22
-1.40
-1.28
-0.94
-0.50
-0.08
0.22
0.35
0.25
-0.15
-0.90
-1.94
-3.18
-4.45
-5.62
-6.59
-7.36
-7.98
-8.53
-9.07
-9.58
-9.98
-10.11
-9.77
-8.80
-7.20
-5.11
-2.80
-0.57
1.38
2.98
4.29
5.43
6.47
7.44
8.31
9.00
9.46
9.65
9.59
9.32
8.91
8.46
8.04
7.71
7.46
7.23
6.96
6.59
6.13
5.59
5.04
4.53
4.09
3.76
3.53
3.42
3.38
3.35
3.23
2.95
2.43
1.67
0.74
-0.27
-1.21
-1.98
-2.53
-2.90
-3.15
-3.37
-3.59
-3.84
-4.09
-4.34
-4.63
-4.98
-5.42
-5.92
-6.41
-6.84
-7.22
-7.63
-8.18
-8.91
-9.73
-10.44
-10.81
-10.71
-10.13
-9.15
-7.90
-6.45
-4.80
-2.94
-0.89
1.24
3.27
5.01
6.31
7.10
7.43
7.35
6.95
6.35
5.62
4.89
4.27
3.89
3.81
4.04
4.52
5.10
5.65
6.07
6.30
6.35
6.28
6.18
6.07
5.96
5.76
5.39
4.81
4.05
3.19
2.36
1.60
0.89
0.17
-0.61
-1.41
-2.17
-2.82
-3.36
-3.87
-4.45
-5.17
-6.03
-7.02
-8.07
-9.13
-10.13
-10.97
-11.53
-11.72
-11.47
-10.80
-9.76
-8.40
-6.76
-4.89
-2.89
-0.88
0.99
2.60
3.93
5.01
5.85
6.46
6.82
6.93
6.83
6.61
6.41
6.31
6.33
6.43
6.50
6.46
6.28
6.00
5.71
5.50
5.42
5.45
5.49
5.43
5.18
4.69
4.02
3.25
2.52
1.90
1.44
1.09
0.79
0.44
-0.06
-0.72
-1.54
-2.48
-3.48
-4.48
-5.43
-6.26
-6.94
-7.44
-7.81
-8.15
-8.62
-9.33
-10.25
-11.25
-12.12
-12.65
-12.72
-12.37
-11.67
-10.68
-9.40
-7.81
-5.87
-3.67
-1.40
0.71
2.51
3.95
5.13
6.17
7.13
7.98
8.60
8.87
8.77
8.41
7.94
7.52
7.24
7.09
7.00
6.97
6.99
7.07
7.20
7.30
7.28
7.11
6.82
6.49
6.17
5.86
5.49
5.00
4.40
3.72
3.01
2.29
1.55
0.74
-0.12
-0.97
-1.72
-2.28
-2.64
-2.89
-3.14
-3.49
-4.02
-4.72
-5.57
-6.51
-7.49
-8.47
-9.44
-10.44
-11.48
-12.53
-13.47
-14.11
-14.26
-13.84
-12.86
-11.47
-9.82
-7.99
-5.98
-3.79
-1.46
0.85
2.91
4.54
5.66
6.38
6.87
7.30
7.70
8.02
8.15
8.01
7.62
7.09
6.56
6.17
6.01
6.08
6.32
6.61
6.78
6.73
6.44
5.96
5.43
4.99
4.68
4.47
4.22
3.79
3.12
2.23
1.26
0.35
-0.40
-1.00
-1.53
-2.10
-2.76
-3.49
-4.21
-4.87
-5.45
-6.00
-6.59
-7.24
-7.93
-8.57
-9.10
-9.50
-9.81
-10.04
-10.16
-10.04
-9.53
-8.51
-6.99
-5.10
-3.01
-0.94
0.95
2.59
3.99
5.19
6.23
7.15
7.92
8.51
8.87
8.94
8.73
8.29
7.73
7.14
6.60
6.11
5.68
5.28
4.92
4.63
4.41
4.29
4.27
4.33
4.40
4.44
4.33
4.02
3.50
2.80
2.03
1.27
0.58
-0.07
-0.72
-1.42
-2.19
-3.01
-3.85
-4.68
-5.48
-6.23
-6.93
-7.58
-8.24
-8.96
-9.81
-10.74
-11.66
-12.39
-12.74
-12.63
-12.08
-11.17
-10.05
-8.79
-7.41
-5.88
-4.17
-2.31
-0.40
1.40
2.97
4.20
5.11
5.73
6.14
6.37
6.46
6.40
6.22
5.95
5.63
5.33
5.14
5.09
5.18
5.36
5.53
5.58
5.47
5.21
4.87
4.55
4.33
4.26
4.35
4.59
4.96
5.37
5.73
5.89
5.73
5.19
4.34
3.32
2.29
1.35
0.45
-0.49
-1.59
-2.87
-4.22
-5.50
-6.59
-7.46
-8.21
-8.97
-9.84
-10.78
-11.65
-12.27
-12.49
-12.26
-11.59
-10.54
-9.16
-7.53
-5.72
-3.86
-2.03
-0.35
1.13
2.37
3.39
4.20
4.85
5.39
5.85
6.24
6.54
6.73
6.81
6.79
6.70
6.55
6.35
6.11
5.85
5.62
5.47
5.40
5.35
5.22
4.93
4.50
3.98
3.49
3.06
2.72
2.40
2.05
1.66
1.25
0.85
0.43
-0.03
-0.60
-1.27
-1.99
-2.70
-3.37
-3.99
-4.63
-5.33
-6.09
-6.89
-7.65
-8.35
-8.99
-9.62
-10.25
-10.82
-11.24
-11.39
-11.16
-10.50
-9.42
-7.95
-6.17
-4.18
-2.13
-0.20
1.49
2.85
3.86
4.53
4.91
5.05
5.01
4.89
4.77
4.75
4.85
5.07
5.36
5.65
5.92
6.16
6.40
6.65
6.91
7.16
7.39
7.55
7.63
7.59
7.44
7.16
6.75
6.22
5.54
4.72
3.78
2.76
1.72
0.70
-0.28
-1.25
-2.22
-3.24
-4.28
-5.29
-6.23
-7.09
-7.94
-8.86
-9.92
-11.10
-12.25
-13.15
-13.58
-13.38
-12.53
-11.12
-9.31
-7.32
-5.30
-3.36
-1.54
0.13
1.64
2.97
4.09
4.98
5.62
6.06
6.34
6.50
6.54
6.45
6.25
5.95
5.66
5.44
5.39
5.47
5.62
5.71
5.64
5.40
5.00
4.51
3.98
3.42
2.86
2.32
1.86
1.55
1.36
1.21
0.96
0.50
-0.23
-1.16
-2.17
-3.11
-3.88
-4.43
-4.82
-5.17
-5.61
-6.26
-7.18
-8.35
-9.67
-11.01
-12.24
-13.20
-13.77
-13.81
-13.22
-11.95
-10.05
-7.68
-5.10
-2.56
-0.28
1.65
3.21
4.50
5.64
6.72
7.76
8.67
9.31
9.56
9.40
8.93
8.33
7.78
7.38
7.18
7.14
7.21
7.35
7.47
7.53
7.45
7.20
6.78
6.24
5.66
5.07
4.47
3.88
3.27
2.68
2.12
1.56
0.99
0.36
-0.33
-1.02
-1.65
-2.17
-2.60
-3.00
-3.44
-3.96
-4.57
-5.23
-5.92
-6.64
-7.41
-8.26
-9.19
-10.15
-11.03
-11.70
-12.02
-11.89
-11.25
-10.08
-8.46
-6.51
-4.37
-2.21
-0.15
1.69
3.31
4.69
5.87
6.84
7.56
7.97
8.05
7.86
7.53
7.20
6.97
6.83
6.70
6.48
6.17
5.86
5.68
5.72
5.95
6.22
6.32
6.11
5.58
4.86
4.11
3.51
3.09
2.78
2.45
1.97
1.30
0.46
-0.43
-1.25
-1.93
-2.49
-3.03
-3.64
-4.38
-5.21
-6.03
-6.73
-7.29
-7.76
-8.26
-8.92
-9.72
-10.56
-11.23
-11.51
-11.28
-10.51
-9.25
-7.60
-5.65
-3.49
-1.25
0.88
2.71
4.11
5.07
5.72
6.24
6.75
7.20
7.44
7.30
6.75
5.95
5.19
4.76
4.80
5.25
5.88
6.43
6.70
6.65
6.37
6.01
5.69
5.45
5.26
5.03
4.66
4.13
3.47
2.75
2.04
1.37
0.69
-0.03
-0.84
-1.71
-2.55
-3.30
-3.95
-4.56
-5.22
-6.03
-6.94
-7.86
-8.63
-9.19
-9.56
-9.91
-10.36
-10.97
-11.62
-12.12
-12.25
-11.88
-10.96
-9.55
-7.72
-5.59
-3.27
-0.91
1.34
3.37
5.12
6.59
7.80
8.75
9.37
9.60
9.44
8.97
8.35
7.79
7.42
7.26
7.26
7.30
7.30
7.24
7.15
7.08
6.99
6.84
6.55
6.08
5.48
4.87
4.33
3.89
3.48
2.99
2.34
1.55
0.74
0.07
-0.38
-0.64
-0.86
-1.21
-1.80
-2.59
-3.47
-4.33
-5.10
-5.77
-6.38
-6.98
-7.58
-8.20
-8.86
-9.62
-10.52
-11.51
-12.45
-13.12
-13.30
-12.85
-11.80
-10.30
-8.55
-6.74
-4.99
-3.32
-1.69
-0.06
1.62
3.33
4.98
6.47
7.65
8.40
8.66
8.49
8.00
7.40
6.88
6.57
6.46
6.48
6.49
6.37
6.08
5.68
5.25
4.88
4.63
4.50
4.46
4.43
4.33
4.08
3.63
2.97
2.18
1.38
0.68
0.16
-0.22
-0.54
-0.89
-1.36
-1.93
-2.61
-3.37
-4.20
-5.07
-5.95
-6.77
-7.48
-8.09
-8.65
-9.26
-9.94
-10.64
-11.23
-11.55
-11.51
-11.12
-10.42
-9.43
-8.11
-6.40
-4.27
-1.82
0.72
3.08
5.08
6.64
7.82
8.70
9.32
9.66
9.69
9.45
9.06
8.63
8.27
7.96
7.65
7.27
6.82
6.36
5.98
5.71
5.51
5.33
5.13
4.91
4.73
4.61
4.51
4.36
4.06
3.53
2.77
1.84
0.83
-0.16
-1.04
-1.81
-2.51
-3.23
-4.09
-5.13
-6.34
-7.62
-8.84
-9.86
-10.64
-11.20
-11.66
-12.15
-12.78
-13.54
-14.33
-14.95
-15.15
-14.73
-13.58
-11.75
-9.42
-6.84
-4.21
-1.69
0.68
2.89
4.93
6.76
8.29
9.39
10.01
10.18
9.99
9.63
9.21
8.79
8.38
7.95
7.52
7.16
6.97
6.98
7.14
7.31
7.34
7.14
6.70
6.12
5.50
4.94
4.45
4.01
3.56
3.04
2.44
1.79
1.09
0.40
-0.27
-0.90
-1.52
-2.14
-2.81
-3.58
-4.47
-5.46
-6.46
-7.40
-8.18
-8.82
-9.38
-9.98
-10.73
-11.62
-12.56
-13.40
-13.96
-14.09
-13.69
-12.66
-11.01
-8.83
-6.26
-3.55
-0.94
1.38
3.34
4.97
6.34
7.50
8.44
9.12
9.49
9.54
9.36
9.09
8.84
8.70
8.67
8.69
8.67
8.52
8.24
7.84
7.41
7.02
6.72
6.53
6.40
6.27
6.08
5.77
5.36
4.87
4.35
3.79
3.19
2.49
1.66
0.69
-0.42
-1.59
-2.77
-3.89
-4.91
-5.85
-6.72
-7.57
-8.38
-9.13
-9.77
-10.33
-10.87
-11.51
-12.31
-13.27
-14.22
-14.92
-15.06
-14.45
-13.02
-10.88
-8.21
-5.28
-2.32
0.50
3.05
5.25
7.07
8.50
9.51
10.09
10.27
10.10
9.71
9.24
8.78
8.41
8.12
7.84
7.51
7.12
6.69
6.35
6.22
6.34
6.62
6.87
6.82
6.34
5.46
4.38
3.34
2.54
1.96
1.48
0.91
0.14
-0.80
-1.78
-2.67
-3.44
-4.17
-5.01
-6.02
-7.14
-8.24
-9.21
-10.04
-10.84
-11.76
-12.87
-14.08
-15.11
-15.64
-15.43
-14.40
-12.69
-10.50
-8.06
-5.49
-2.83
-0.16
2.44
4.83
6.88
8.53
9.74
10.52
10.89
10.88
10.54
10.00
9.44
9.00
8.74
8.62
8.52
8.35
8.09
7.82
7.65
7.62
7.68
7.68
7.49
7.03
6.33
5.48
4.57
3.65
2.74
1.81
0.87
-0.04
-0.91
-1.71
-2.48
-3.24
-4.04
-4.93
-5.92
-7.01
-8.20
-9.48
-10.78
-12.06
-13.26
-14.37
-15.41
-16.36
-17.20
-17.78
-17.93
-17.46
-16.24
-14.26
-11.61
-8.51
-5.20
-1.95
1.04
3.64
5.81
7.56
8.96
10.08
10.97
11.65
12.10
12.30
12.24
11.96
11.54
11.03
10.49
9.92
9.39
8.93
8.65
8.58
8.72
8.96
9.17
9.21
8.99
8.51
7.81
6.94
6.01
5.08
4.22
3.45
2.74
2.01
1.16
0.14
-1.02
-2.24
-3.43
-4.53
-5.56
-6.51
-7.37
-8.10
-8.66
-9.09
-9.53
-10.13
-11.04
-12.30
-13.79
-15.31
-16.55
-17.27
-17.24
-16.37
-14.63
-12.12
-9.01
-5.60
-2.21
0.90
3.55
5.69
7.39
8.78
9.93
10.85
11.46
11.67
11.42
10.79
9.93
9.07
8.38
7.93
7.69
7.56
7.51
7.50
7.57
7.66
7.69
7.51
7.00
6.17
5.15
4.14
3.31
2.75
2.41
2.16
1.87
1.45
0.85
0.07
-0.88
-1.96
-3.10
-4.21
-5.21
-6.05
-6.75
-7.39
-8.03
-8.76
-9.57
-10.44
-11.29
-12.09
-12.82
-13.47
-13.99
-14.25
-14.01
-13.04
-11.20
-8.53
-5.31
-1.93
1.20
3.84
5.94
7.68
9.22
10.67
11.95
12.90
13.33
13.15
12.41
11.34
10.17
9.13
8.35
7.84
7.55
7.38
7.26
7.14
7.03
6.92
6.80
6.65
6.39
6.01
5.46
4.75
3.93
3.05
2.17
1.35
0.62
-0.05
-0.70
-1.42
-2.26
-3.23
-4.28
-5.33
-6.34
-7.28
-8.18
-9.09
-10.03
-11.01
-12.02
-13.02
-13.98
-14.85
-15.55
-15.97
-15.97
-15.42
-14.24
-12.41
-10.03
-7.29
-4.40
-1.52
1.21
3.71
5.92
7.74
9.11
9.99
10.43
10.55
10.46
10.24
9.92
9.50
9.03
8.58
8.28
8.16
8.18
8.22
8.20
8.07
7.91
7.81
7.80
7.79
7.67
7.28
6.58
5.62
4.53
3.45
2.46
1.60
0.86
0.23
-0.35
-0.92
-1.59
-2.44
-3.51
-4.75
-6.05
-7.27
-8.33
-9.22
-10.01
-10.81
-11.68
-12.68
-13.75
-14.78
-15.64
-16.15
-16.15
-15.50
-14.13
-12.08
-9.46
-6.48
-3.35
-0.30
2.51
4.96
7.03
8.70
9.98
10.89
11.46
11.67
11.54
11.12
10.49
9.77
9.08
8.52
8.12
7.89
7.76
7.70
7.64
7.53
7.31
6.97
6.51
5.96
5.38
4.82
4.30
3.81
3.29
2.70
2.02
1.30
0.55
-0.20
-0.97
-1.82
-2.78
-3.87
-5.04
-6.25
-7.42
-8.47
-9.33
-9.99
-10.43
-10.70
-10.92
-11.23
-11.76
-12.56
-13.57
-14.53
-15.13
-15.01
-13.97
-11.97
-9.17
-5.89
-2.47
0.77
3.64
6.03
7.92
9.31
10.25
10.78
10.99
10.95
10.75
10.46
10.15
9.87
9.67
9.61
9.71
9.94
10.21
10.40
10.43
10.25
9.92
9.48
8.98
8.40
7.67
6.76
5.66
4.48
3.32
2.26
1.29
0.34
-0.67
-1.75
-2.86
-3.91
-4.80
-5.51
-6.09
-6.62
-7.19
-7.86
-8.63
-9.44
-10.23
-10.95
-11.60
-12.24
-12.98
-13.89
-14.96
-16.06
-16.92
-17.25
-16.78
-15.44
-13.31
-10.67
-7.84
-5.14
-2.75
-0.71
1.05
2.62
4.02
5.24
6.18
6.78
7.04
7.03
6.91
6.87
7.09
7.64
8.45
9.33
9.97
10.15
9.81
9.09
8.28
7.69
7.46
7.54
7.67
7.54
6.85
5.53
3.72
1.87
0.63
0.70
2.55
6.16
10.94
15.79
19.46
21.01
20.07
16.98
12.55
7.75
3.36
-0.24
-3.05
-5.38
-7.59
-9.97
-12.60
-15.40
-18.22
-20.92
-23.44
-25.77
-27.83
-29.45
-30.33
-30.17
-28.76
-26.13
-22.49
-18.23
-13.75
-9.35
-5.18
-1.25
2.52
6.14
9.54
12.52
14.81
16.20
16.64
16.29
15.44
14.42
13.44
12.60
11.83
11.06
10.28
9.56
9.04
8.75
8.65
8.54
8.18
7.41
6.21
4.67
2.98
1.29
-0.25
-1.55
-2.53
-3.10
-3.23
-2.99
-2.51
-1.99
-1.61
-1.49
-1.68
-2.16
-2.91
-3.83
-4.83
-5.81
-6.69
-7.44
-8.08
-8.69
-9.35
-10.12
-10.93
-11.67
-12.13
-12.10
-11.45
-10.16
-8.39
-6.40
-4.48
-2.78
-1.34
-0.03
1.24
2.50
3.60
4.34
4.56
4.26
3.62
2.87
2.21
1.74
1.45
1.29
1.31
1.58
2.21
3.22
4.51
5.90
7.18
8.17
8.84
9.21
9.34
9.30
9.10
8.75
8.25
7.60
6.85
6.02
5.08
3.99
2.70
1.20
-0.48
-2.17
-3.70
-4.90
-5.66
-6.02
-6.10
-6.09
-6.21
-6.65
-7.51
-8.75
-10.21
-11.67
-12.86
-13.58
-13.71
-13.23
-12.16
-10.59
-8.65
-6.51
-4.35
-2.37
-0.72
0.57
1.54
2.31
2.99
3.64
4.21
4.65
4.90
5.00
5.09
5.30
5.72
6.35
7.07
7.71
8.18
8.44
8.52
8.51
8.49
8.55
8.77
9.16
9.67
10.12
10.26
9.82
8.67
6.89
4.71
2.49
0.52
-1.04
-2.24
-3.23
-4.20
-5.29
-6.52
-7.82
-9.02
-9.96
-10.52
-10.75
-10.79
-10.86
-11.18
-11.87
-12.86
-13.99
-15.06
-15.89
-16.41
-16.66
-16.72
-16.59
-16.18
-15.39
-14.11
-12.36
-10.24
-7.95
-5.63
-3.37
-1.21
0.84
2.76
4.53
6.12
7.56
8.88
10.10
11.23
12.19
12.97
13.55
13.96
14.22
14.28
14.07
13.54
12.77
11.95
11.35
11.20
11.58
12.37
13.30
14.04
14.31
13.89
12.69
10.76
8.30
5.64
3.19
1.25
-0.05
-0.85
-1.51
-2.38
-3.65
-5.26
-6.91
-8.23
-8.99
-9.19
-9.06
-8.94
-9.12
-9.72
-10.66
-11.72
-12.64
-13.21
-13.31
-12.87
-11.89
-10.39
-8.43
-6.12
-3.61
-1.04
1.43
3.70
5.74
7.54
9.12
10.48
11.52
12.16
12.28
11.89
11.11
10.14
9.24
8.54
8.07
7.71
7.26
6.60
5.68
4.55
3.33
2.11
0.98
-0.01
-0.83
-1.43
-1.82
-2.05
-2.17
-2.30
-2.55
-2.96
-3.55
-4.23
-4.87
-5.36
-5.61
-5.58
-5.34
-5.00
-4.71
-4.63
-4.83
-5.31
-5.97
-6.69
-7.35
-7.93
-8.48
-9.09
-9.82
-10.60
-11.20
-11.37
-10.87
-9.60
-7.60
-5.02
-2.09
0.91
3.67
5.92
7.43
8.11
8.02
7.38
6.50
5.66
5.05
4.72
4.61
4.59
4.54
4.38
4.07
3.61
3.01
2.35
1.74
1.33
1.21
1.43
1.93
2.57
3.17
3.63
3.87
3.90
3.70
3.22
2.43
1.34
0.05
-1.28
-2.46
-3.41
-4.12
-4.65
-5.05
-5.32
-5.41
-5.31
-5.13
-5.06
-5.36
-6.20
-7.66
-9.59
-11.72
-13.72
-15.17
-15.71
-15.07
-13.17
-10.13
-6.30
-2.15
1.88
5.48
8.53
11.01
12.93
14.28
15.02
15.16
14.84
14.30
13.74
13.25
12.78
12.14
11.18
9.90
8.46
7.15
6.19
5.67
5.52
5.59
5.72
5.86
5.98
6.08
6.09
5.95
5.57
4.97
4.24
3.48
2.82
2.29
1.89
1.55
1.25
0.96
0.70
0.44
0.17
-0.17
-0.63
-1.25
-2.00
-2.85
-3.77
-4.78
-5.96
-7.37
-9.03
-10.85
-12.62
-14.10
-15.13
-15.67
-15.78
-15.61
-15.24
-14.65
-13.76
-12.45
-10.65
-8.38
-5.75
-2.97
-0.32
1.97
3.75
5.01
5.89
6.57
7.20
7.86
8.53
9.11
9.55
9.80
9.87
9.76
9.46
9.02
8.58
8.39
8.67
9.52
10.73
11.88
12.38
11.79
9.95
7.01
3.38
-0.47
-4.14
-7.31
-9.73
-11.14
-11.37
-10.41
-8.50
-6.15
-3.94
-2.38
-1.68
-1.80
-2.48
-3.47
-4.55
-5.62
-6.64
-7.58
-8.40
-9.10
-9.72
-10.32
-10.91
-11.38
-11.53
-11.13
-10.05
-8.35
-6.25
-4.00
-1.81
0.27
2.27
4.23
6.13
7.86
9.21
10.04
10.29
10.07
9.55
8.93
8.35
7.86
7.47
7.12
6.76
6.41
6.10
5.95
6.10
6.71
7.86
9.49
11.37
13.12
14.30
14.57
13.80
12.13
9.92
7.58
5.46
3.71
2.34
1.18
0.08
-1.06
-2.27
-3.50
-4.76
-6.06
-7.44
-8.89
-10.33
-11.62
-12.65
-13.41
-14.02
-14.64
-15.40
-16.23
-16.94
-17.23
-16.85
-15.69
-13.82
-11.41
-8.72
-6.06
-3.67
-1.72
-0.28
0.72
1.47
2.16
2.90
3.72
4.54
5.25
5.77
6.05
6.13
6.08
5.97
5.86
5.76
5.67
5.58
5.46
5.31
5.13
4.89
4.54
4.05
3.42
2.73
2.13
1.79
1.73
1.83
1.87
1.61
0.97
0.00
-1.11
-2.18
-3.10
-3.90
-4.65
-5.40
-6.13
-6.75
-7.23
-7.63
-8.10
-8.81
-9.84
-11.09
-12.33
-13.26
-13.65
-13.38
-12.47
-10.99
-9.03
-6.70
-4.14
-1.50
1.03
3.35
5.39
7.15
8.63
9.82
10.66
11.08
11.07
10.74
10.24
9.77
9.47
9.39
9.49
9.66
9.78
9.75
9.53
9.15
8.69
8.19
7.68
7.11
6.45
5.67
4.82
3.96
3.22
2.64
2.23
1.96
1.75
1.53
1.25
0.85
0.27
-0.50
-1.45
-2.53
-3.63
-4.66
-5.57
-6.33
-7.00
-7.63
-8.31
-9.09
-10.00
-11.02
-12.07
-13.04
-13.79
-14.18
-14.11
-13.52
-12.40
-10.78
-8.72
-6.36
-3.86
-1.39
0.88
2.87
4.57
6.02
7.21
8.13
8.71
8.91
8.76
8.39
7.95
7.58
7.35
7.24
7.19
7.18
7.20
7.30
7.50
7.76
8.01
8.17
8.18
8.03
7.73
7.28
6.70
5.96
5.07
4.07
3.02
2.00
1.06
0.23
-0.52
-1.26
-2.05
-2.94
-3.92
-4.94
-5.93
-6.82
-7.59
-8.26
-8.86
-9.44
-10.10
-10.89
-11.84
-12.93
-13.99
-14.84
-15.23
-15.00
-14.09
-12.58
-10.61
-8.33
-5.81
-3.13
-0.34
2.40
4.88
6.85
8.14
8.75
8.84
8.65
8.45
8.40
8.50
8.67
8.78
8.76
8.61
8.41
8.25
8.15
8.10
8.01
7.80
7.43
6.93
6.39
5.92
5.57
5.31
5.07
4.70
4.11
3.30
2.36
1.45
0.65
0.02
-0.50
-1.01
-1.58
-2.19
-2.81
-3.38
-3.89
-4.40
-5.00
-5.72
-6.55
-7.40
-8.16
-8.83
-9.46
-10.17
-11.07
-12.13
-13.18
-13.97
-14.26
-13.94
-13.04
-11.69
-10.03
-8.14
-6.05
-3.77
-1.37
1.04
3.35
5.45
7.27
8.77
9.88
10.52
10.66
10.38
9.86
9.35
9.06
9.01
9.13
9.23
9.19
8.99
8.71
8.45
8.25
8.08
7.86
7.56
7.17
6.73
6.25
5.72
5.06
4.31
3.50
2.74
2.13
1.71
1.45
1.25
0.98
0.54
-0.11
-0.96
-1.94
-2.96
-3.93
-4.77
-5.46
-6.06
-6.64
-7.29
-8.05
-8.93
-9.91
-10.96
-12.05
-13.13
-14.14
-14.99
-15.55
-15.66
-15.18
-14.02
-12.23
-9.93
-7.35
-4.72
-2.23
0.07
2.14
4.00
5.64
6.96
7.89
8.39
8.51
8.34
8.06
7.76
7.52
7.36
7.26
7.20
7.21
7.30
7.46
7.65
7.84
7.94
7.91
7.71
7.37
6.90
6.36
5.80
5.27
4.78
4.32
3.83
3.26
2.62
1.95
1.29
0.70
0.14
-0.47
-1.21
-2.10
-3.09
-4.03
-4.85
-5.54
-6.16
-6.84
-7.63
-8.51
-9.42
-10.30
-11.17
-12.07
-12.99
-13.81
-14.31
-14.28
-13.58
-12.22
-10.38
-8.28
-6.11
-3.99
-1.98
-0.07
1.73
3.42
4.94
6.24
7.23
7.88
8.20
8.26
8.19
8.12
8.11
8.16
8.19
8.13
7.97
7.78
7.69
7.76
7.99
8.25
8.39
8.28
7.89
7.31
6.66
6.05
5.50
4.93
4.25
3.39
2.37
1.28
0.25
-0.61
-1.28
-1.79
-2.21
-2.64
-3.13
-3.74
-4.55
-5.55
-6.71
-7.93
-9.08
-10.07
-10.88
-11.57
-12.22
-12.86
-13.43
-13.77
-13.75
-13.25
-12.29
-10.94
-9.31
-7.48
-5.48
-3.35
-1.16
0.99
2.93
4.53
5.70
6.47
6.98
7.39
7.84
8.34
8.78
8.99
8.87
8.41
7.74
7.06
6.54
6.27
6.23
6.37
6.56
6.73
6.83
6.84
6.73
6.47
6.04
5.45
4.72
3.91
3.11
2.41
1.87
1.50
1.26
1.07
0.85
0.53
0.08
-0.54
-1.32
-2.26
-3.31
-4.42
-5.47
-6.38
-7.13
-7.79
-8.45
-9.23
-10.22
-11.38
-12.57
-13.59
-14.21
-14.24
-13.60
-12.30
-10.46
-8.27
-5.93
-3.63
-1.46
0.51
2.27
3.83
5.16
6.20
6.93
7.31
7.40
7.30
7.09
6.84
6.58
6.32
6.07
5.88
5.80
5.86
6.05
6.24
6.26
6.01
5.47
4.72
3.93
3.27
2.80
2.49
2.28
2.14
2.10
2.21
2.49
2.80
2.95
2.70
1.95
0.75
-0.67
-2.04
-3.21
-4.16
-5.01
-5.89
-6.85
-7.82
-8.67
-9.31
-9.73
-10.02
-10.30
-10.56
-10.71
-10.51
-9.76
-8.34
-6.37
-4.09
-1.82
0.19
1.85
3.17
4.26
5.20
6.02
6.67
7.07
7.19
7.06
6.76
6.44
6.20
6.08
6.08
6.13
6.17
6.15
6.09
6.00
5.94
5.90
5.87
5.80
5.62
5.29
4.78
4.14
3.44
2.79
2.26
1.83
1.44
0.99
0.43
-0.24
-0.97
-1.72
-2.46
-3.21
-4.02
-4.92
-5.90
-6.93
-7.98
-9.04
-10.12
-11.20
-12.28
-13.30
-14.20
-14.90
-15.29
-15.28
-14.82
-13.91
-12.59
-10.91
-8.94
-6.70
-4.24
-1.64
0.96
3.37
5.41
6.93
7.92
8.47
8.72
8.86
8.98
9.11
9.24
9.32
9.33
9.29
9.24
9.17
9.07
8.88
8.57
8.17
7.75
7.40
7.16
7.01
6.90
6.73
6.49
6.15
5.74
5.28
4.75
4.11
3.35
2.47
1.54
0.69
0.01
-0.48
-0.80
-1.06
-1.35
-1.72
-2.13
-2.53
-2.87
-3.19
-3.59
-4.16
-4.94
-5.87
-6.85
-7.75
-8.48
-9.02
-9.38
-9.54
-9.50
-9.22
-8.66
-7.82
-6.73
-5.45
-4.07
-2.65
-1.26
0.03
1.16
2.08
2.78
3.31
3.71
4.06
4.36
4.56
4.62
4.49
4.23
3.95
3.76
3.75
3.89
4.07
4.19
4.17
4.01
3.74
3.43
3.07
2.64
2.17
1.70
1.30
1.05
0.93
0.88
0.73
0.39
-0.18
-0.90
-1.66
-2.34
-2.89
-3.31
-3.62
-3.88
-4.15
-4.50
-4.98
-5.66
-6.51
-7.43
-8.30
-8.99
-9.47
-9.78
-9.98
-10.12
-10.12
-9.85
-9.17
-7.98
-6.28
-4.17
-1.83
0.50
2.59
4.25
5.41
6.15
6.62
6.98
7.30
7.54
7.59
7.36
6.90
6.35
5.91
5.73
5.80
5.98
6.08
5.99
5.72
5.33
4.95
4.60
4.27
3.94
3.57
3.22
2.92
2.65
2.36
1.92
1.26
0.38
-0.63
-1.64
-2.56
-3.38
-4.14
-4.86
-5.55
-6.15
-6.65
-7.05
-7.42
-7.80
-8.23
-8.70
-9.16
-9.61
-10.04
-10.48
-10.91
-11.24
-11.32
-11.03
-10.27
-9.03
-7.40
-5.46
-3.35
-1.20
0.84
2.66
4.14
5.27
6.06
6.56
6.87
7.04
7.16
7.29
7.44
7.63
7.79
7.87
7.80
7.56
7.22
6.86
6.57
6.40
6.33
6.32
6.33
6.30
6.20
5.97
5.57
4.98
4.22
3.34
2.42
1.53
0.71
-0.00
-0.64
-1.29
-2.01
-2.87
-3.89
-4.99
-6.10
-7.10
-7.91
-8.51
-8.95
-9.33
-9.77
-10.38
-11.15
-12.00
-12.71
-13.06
-12.82
-11.92
-10.41
-8.42
-6.15
-3.75
-1.35
0.97
3.17
5.20
7.03
8.61
9.88
10.76
11.18
11.14
10.69
9.97
9.13
8.34
7.69
7.20
6.85
6.60
6.40
6.21
5.99
5.73
5.42
5.07
4.71
4.35
4.02
3.69
3.35
2.97
2.51
2.00
1.46
0.91
0.32
-0.34
-1.10
-1.98
-2.93
-3.85
-4.67
-5.34
-5.88
-6.35
-6.80
-7.30
-7.91
-8.67
-9.63
-10.74
-11.88
-12.86
-13.44
-13.45
-12.80
-11.50
-9.64
-7.32
-4.71
-1.97
0.68
3.01
4.83
6.07
6.77
7.10
7.25
7.39
7.55
7.69
7.76
7.67
7.45
7.14
6.82
6.54
6.33
6.17
6.05
5.92
5.73
5.49
5.18
4.79
4.32
3.80
3.24
2.69
2.22
1.81
1.42
0.91
0.15
-0.93
-2.26
-3.67
-4.92
-5.85
-6.44
-6.79
-7.09
-7.54
-8.22
-9.18
-10.36
-11.67
-12.90
-13.78
-14.01
-13.34
-11.66
-9.12
-6.12
-3.12
-0.54
1.38
2.66
3.50
4.16
4.85
5.64
6.48
7.21
7.67
7.80
7.63
7.28
6.92
6.68
6.61
6.67
6.77
6.84
6.85
6.78
6.65
6.46
6.18
5.78
5.24
4.57
3.87
3.22
2.71
2.38
2.17
1.93
1.52
0.83
-0.15
-1.33
-2.58
-3.80
-4.94
-6.00
-6.99
-7.88
-8.67
-9.37
-10.05
-10.83
-11.78
-12.84
-13.84
-14.52
-14.63
-14.05
-12.76
-10.89
-8.65
-6.22
-3.75
-1.31
1.08
3.40
5.58
7.49
9.02
10.07
10.66
10.93
11.07
11.23
11.43
11.56
11.46
10.99
10.19
9.20
8.28
7.60
7.24
7.12
7.07
6.92
6.65
6.32
6.04
5.88
5.75
5.44
4.78
3.73
2.46
1.24
0.31
-0.25
-0.58
-0.94
-1.54
-2.45
-3.59
-4.78
-5.92
-6.99
-8.01
-9.01
-9.94
-10.75
-11.37
-11.85
-12.29
-12.75
-13.19
-13.43
-13.25
-12.43
-10.94
-8.89
-6.48
-3.95
-1.46
0.87
2.98
4.85
6.41
7.64
8.50
9.03
9.26
9.30
9.26
9.21
9.16
9.07
8.85
8.42
7.82
7.14
6.54
6.09
5.81
5.64
5.48
5.25
4.94
4.58
4.19
3.81
3.42
3.01
2.53
1.96
1.25
0.38
-0.65
-1.79
-2.95
-4.00
-4.82
-5.38
-5.69
-5.89
-6.18
-6.76
-7.76
-9.13
-10.66
-12.04
-12.96
-13.27
-12.99
-12.27
-11.27
-10.06
-8.60
-6.76
-4.50
-1.87
0.91
3.52
5.65
7.11
7.88
8.09
7.96
7.70
7.49
7.42
7.47
7.57
7.60
7.45
7.06
6.49
5.86
5.33
5.06
5.06
5.25
5.46
5.50
5.29
4.86
4.35
3.89
3.53
3.21
2.83
2.30
1.61
0.82
-0.03
-0.92
-1.88
-2.97
-4.24
-5.62
-7.05
-8.42
-9.71
-10.92
-12.10
-13.26
-14.36
-15.27
-15.80
-15.75
-14.94
-13.36
-11.10
-8.39
-5.53
-2.77
-0.29
1.86
3.68
5.23
6.53
7.54
8.23
8.55
8.52
8.23
7.79
7.33
6.91
6.60
6.40
6.31
6.36
6.52
6.77
7.04
7.20
7.13
6.78
6.17
5.46
4.82
4.41
4.27
4.26
4.16
3.74
2.88
1.63
0.17
-1.24
-2.40
-3.24
-3.81
-4.23
-4.62
-5.07
-5.56
-6.05
-6.52
-7.03
-7.67
-8.53
-9.62
-10.83
-11.98
-12.86
-13.29
-13.22
-12.62
-11.54
-10.03
-8.15
-6.02
-3.76
-1.54
0.52
2.34
3.92
5.27
6.41
7.34
8.03
8.47
8.66
8.61
8.33
7.93
7.49
7.14
6.96
6.96
7.05
7.11
7.03
6.83
6.60
6.46
6.45
6.50
6.49
6.24
5.71
4.94
4.03
3.12
2.28
1.53
0.87
0.28
-0.24
-0.64
-0.95
-1.24
-1.65
-2.29
-3.19
-4.30
-5.50
-6.66
-7.71
-8.69
-9.68
-10.74
-11.86
-12.95
-13.86
-14.44
-14.56
-14.14
-13.16
-11.61
-9.53
-7.04
-4.27
-1.41
1.36
3.88
5.98
7.58
8.64
9.24
9.51
9.65
9.76
9.88
9.90
9.74
9.35
8.78
8.17
7.66
7.34
7.20
7.14
7.05
6.83
6.45
5.95
5.43
4.96
4.58
4.27
3.95
3.55
3.05
2.49
1.96
1.51
1.12
0.66
0.01
-0.88
-1.96
-3.07
-4.08
-4.91
-5.57
-6.15
-6.76
-7.46
-8.25
-9.13
-10.08
-11.09
-12.10
-13.00
-13.60
-13.71
-13.19
-12.07
-10.47
-8.60
-6.62
-4.62
-2.59
-0.48
1.64
3.66
5.42
6.75
7.63
8.09
8.24
8.15
7.87
7.41
6.83
6.23
5.76
5.52
5.51
5.64
5.79
5.88
5.91
5.93
6.01
6.14
6.24
6.17
5.86
5.30
4.57
3.73
2.85
1.95
1.06
0.21
-0.59
-1.30
-1.95
-2.61
-3.34
-4.16
-5.09
-6.09
-7.11
-8.12
-9.12
-10.17
-11.30
-12.50
-13.67
-14.61
-15.14
-15.10
-14.47
-13.33
-11.79
-10.00
-8.00
-5.84
-3.57
-1.25
0.99
3.03
4.78
6.18
7.23
7.95
8.40
8.66
8.79
8.85
8.88
8.87
8.78
8.56
8.16
7.56
6.80
6.01
5.34
4.92
4.79
4.88
5.00
4.98
4.73
4.26
3.67
3.02
2.35
1.63
0.84
0.00
-0.82
-1.60
-2.35
-3.12
-3.96
-4.88
-5.83
-6.78
-7.72
-8.73
-9.85
-11.09
-12.36
-13.54
-14.47
-15.07
-15.32
-15.21
-14.72
-13.78
-12.35
-10.40
-8.02
-5.37
-2.65
-0.05
2.30
4.35
6.08
7.52
8.66
9.51
10.07
10.41
10.57
10.59
10.47
10.21
9.78
9.23
8.61
8.04
7.56
7.22
6.99
6.85
6.77
6.72
6.66
6.55
6.32
5.95
5.44
4.79
4.00
3.07
2.03
0.98
0.03
-0.70
-1.17
-1.47
-1.76
-2.25
-3.08
-4.20
-5.50
-6.76
-7.84
-8.70
-9.41
-10.08
-10.79
-11.56
-12.34
-13.02
-13.50
-13.69
-13.49
-12.80
-11.58
-9.78
-7.44
-4.68
-1.69
1.30
4.04
6.32
8.05
9.20
9.88
10.21
10.28
10.14
9.81
9.33
8.74
8.18
7.72
7.44
7.29
7.21
7.12
7.00
6.82
6.62
6.37
6.08
5.75
5.39
4.99
4.57
4.08
3.52
2.92
2.32
1.74
1.21
0.68
0.12
-0.49
-1.11
-1.69
-2.19
-2.63
-3.07
-3.61
-4.31
-5.18
-6.17
-7.23
-8.28
-9.30
-10.29
-11.26
-12.20
-13.06
-13.73
-14.02
-13.71
-12.62
-10.67
-7.94
-4.71
-1.35
1.74
4.29
6.18
7.44
8.21
8.64
8.87
9.00
9.05
9.07
9.05
9.01
8.93
8.82
8.67
8.50
8.30
8.09
7.89
7.69
7.51
7.32
7.07
6.69
6.14
5.42
4.61
3.82
3.15
2.62
2.20
1.79
1.28
0.63
-0.17
-1.07
-2.03
-3.02
-4.06
-5.15
-6.27
-7.40
-8.47
-9.44
-10.32
-11.15
-12.02
-13.01
-14.15
-15.35
-16.44
-17.18
-17.33
-16.79
-15.54
-13.68
-11.36
-8.72
-5.88
-2.98
-0.15
2.43
4.65
6.45
7.86
8.93
9.75
10.32
10.67
10.80
10.78
10.68
10.59
10.52
10.44
10.30
10.04
9.70
9.28
8.82
8.33
7.79
7.22
6.65
6.13
5.70
5.31
4.88
4.31
3.55
2.63
1.63
0.64
-0.28
-1.13
-1.95
-2.76
-3.60
-4.42
-5.20
-5.95
-6.69
-7.51
-8.45
-9.55
-10.77
-12.05
-13.31
-14.46
-15.42
-16.08
-16.31
-16.00
-15.05
-13.48
-11.35
-8.79
-5.97
-3.04
-0.17
2.49
4.83
6.80
8.41
9.74
10.84
11.72
12.31
12.50
12.24
11.58
10.67
9.72
8.92
8.39
8.12
8.06
8.09
8.11
8.02
7.80
7.46
7.04
6.59
6.14
5.70
5.23
4.68
4.02
3.23
2.32
1.36
0.40
-0.48
-1.24
-1.87
-2.42
-2.96
-3.57
-4.33
-5.25
-6.33
-7.55
-8.89
-10.31
-11.76
-13.20
-14.60
-15.90
-16.97
-17.64
-17.64
-16.79
-15.02
-12.42
-9.25
-5.81
-2.36
0.91
3.85
6.34
8.30
9.67
10.48
10.84
10.93
10.87
10.72
10.45
10.02
9.41
8.65
7.83
7.03
6.34
5.80
5.47
5.38
5.56
5.92
6.33
6.58
6.50
6.03
5.22
4.24
3.26
2.39
1.59
0.79
-0.15
-1.26
-2.51
-3.79
-5.01
-6.13
-7.15
-8.09
-9.01
-9.93
-10.86
-11.81
-12.81
-13.88
-14.99
-16.04
-16.81
-17.03
-16.43
-14.86
-12.39
-9.26
-5.81
-2.41
0.70
3.40
5.66
7.53
9.02
10.16
10.94
11.34
11.38
11.06
10.44
9.66
8.90
8.33
8.01
7.92
7.92
7.85
7.65
7.40
7.20
7.13
7.15
7.11
6.82
6.17
5.18
4.00
2.79
1.71
0.82
0.08
-0.57
-1.23
-1.97
-2.83
-3.80
-4.86
-5.95
-7.04
-8.13
-9.22
-10.34
-11.49
-12.68
-13.91
-15.14
-16.31
-17.27
-17.80
-17.64
-16.63
-14.78
-12.26
-9.37
-6.41
-3.59
-0.95
1.54
3.93
6.20
8.25
9.96
11.23
12.02
12.38
12.36
12.05
11.52
10.85
10.14
9.49
8.96
8.59
8.34
8.18
8.11
8.12
8.20
8.32
8.37
8.25
7.91
7.37
6.68
5.95
5.22
4.48
3.69
2.82
1.86
0.84
-0.23
-1.35
-2.52
-3.73
-4.92
-6.03
-6.94
-7.63
-8.17
-8.72
-9.48
-10.60
-12.10
-13.81
-15.46
-16.69
-17.22
-16.88
-15.69
-13.78
-11.34
-8.60
-5.73
-2.85
-0.05
2.59
4.98
7.00
8.54
9.56
10.09
10.26
10.22
10.08
9.91
9.69
9.37
8.92
8.39
7.82
7.28
6.79
6.34
5.93
5.59
5.36
5.25
5.20
5.09
4.78
4.20
3.38
2.42
1.51
0.74
0.16
-0.31
-0.78
-1.38
-2.19
-3.19
-4.26
-5.24
-5.99
-6.50
-6.90
-7.41
-8.23
-9.44
-10.93
-12.48
-13.78
-14.60
-14.83
-14.45
-13.52
-12.09
-10.19
-7.86
-5.16
-2.22
0.76
3.56
5.98
7.91
9.36
10.40
11.10
11.53
11.68
11.55
11.13
10.44
9.54
8.54
7.57
6.75
6.19
5.94
6.01
6.29
6.65
6.92
6.95
6.66
6.05
5.18
4.17
3.17
2.29
1.57
0.97
0.40
-0.24
-1.01
-1.87
-2.76
-3.64
-4.49
-5.36
-6.25
-7.15
-8.03
-8.89
-9.80
-10.89
-12.26
-13.87
-15.47
-16.65
-17.00
-16.30
-14.58
-12.09
-9.16
-6.08
-3.04
-0.14
2.50
4.76
6.54
7.81
8.63
9.09
9.28
9.24
8.98
8.55
8.06
7.64
7.39
7.33
7.41
7.55
7.68
7.77
7.79
7.70
7.42
6.90
6.20
5.42
4.68
4.07
3.56
3.07
2.50
1.82
1.00
0.09
-0.92
-2.01
-3.15
-4.26
-5.25
-6.09
-6.80
-7.50
-8.29
-9.19
-10.15
-11.12
-12.04
-12.89
-13.67
-14.28
-14.52
-14.14
-12.97
-11.01
-8.44
-5.56
-2.66
0.08
2.54
4.71
6.55
7.99
8.99
9.52
9.65
9.51
9.27
9.05
8.89
8.76
8.57
8.25
7.80
7.33
6.95
6.76
6.74
6.78
6.71
6.45
5.99
5.42
4.88
4.46
4.14
3.89
3.59
3.19
2.68
2.08
1.44
0.76
0.04
-0.77
-1.67
-2.68
-3.77
-4.91
-6.06
-7.19
-8.28
-9.35
-10.41
-11.43
-12.39
-13.19
-13.71
-13.85
-13.51
-12.66
-11.31
-9.55
-7.45
-5.11
-2.62
-0.10
2.34
4.57
6.44
7.84
8.68
8.95
8.76
8.28
7.74
7.32
7.08
6.97
6.88
6.71
6.45
6.17
5.99
5.95
6.01
6.06
5.99
5.76
5.42
5.04
4.64
4.23
3.74
3.14
2.47
1.76
1.06
0.38
-0.33
-1.15
-2.10
-3.13
-4.13
-4.98
-5.66
-6.20
-6.77
-7.50
-8.47
-9.64
-10.88
-12.06
-13.05
-13.81
-14.25
-14.29
-13.81
-12.72
-11.00
-8.76
-6.23
-3.68
-1.35
0.61
2.18
3.42
4.41
5.20
5.85
6.42
6.95
7.45
7.91
8.27
8.45
8.43
8.21
7.86
7.43
6.98
6.57
6.22
5.98
5.89
5.93
6.03
6.06
5.86
5.34
4.52
3.51
2.51
1.65
0.97
0.42
-0.11
-0.74
-1.54
-2.50
-3.55
-4.59
-5.55
-6.43
-7.23
-7.97
-8.67
-9.35
-10.02
-10.78
-11.68
-12.72
-13.79
-14.63
-14.90
-14.32
-12.79
-10.42
-7.57
-4.64
-1.97
0.26
2.03
3.44
4.63
5.68
6.62
7.43
8.05
8.40
8.46
8.24
7.80
7.25
6.67
6.13
5.65
5.24
4.92
4.76
4.80
5.06
5.43
5.74
5.82
5.56
5.03
4.39
3.86
3.58
3.52
3.56
3.51
3.21
2.61
1.76
0.75
-0.31
-1.36
-2.41
-3.45
-4.49
-5.50
-6.44
-7.29
-8.07
-8.82
-9.61
-10.46
-11.32
-12.11
-12.67
-12.89
-12.69
-12.07
-11.07
-9.77
-8.22
-6.45
-4.49
-2.39
-0.25
1.79
3.60
5.08
6.17
6.90
7.33
7.53
7.56
7.44
7.22
6.89
6.48
5.97
5.41
4.88
4.45
4.18
4.09
4.12
4.14
4.05
3.78
3.34
2.83
2.34
1.95
1.64
1.34
0.97
0.49
-0.06
-0.63
-1.20
-1.77
-2.45
-3.32
-4.36
-5.46
-6.45
-7.20
-7.68
-8.04
-8.52
-9.29
-10.35
-11.50
-12.36
-12.59
-11.98
-10.58
-8.63
-6.47
-4.38
-2.46
-0.67
1.11
3.00
4.93
6.71
8.11
8.89
8.99
8.56
7.83
7.11
6.59
6.28
6.11
5.93
5.66
5.34
5.07
4.97
5.09
5.37
5.68
5.89
5.90
5.68
5.23
4.57
3.75
2.84
1.90
1.02
0.26
-0.39
-0.98
-1.62
-2.41
-3.40
-4.56
-5.79
-6.98
-8.02
-8.90
-9.62
-10.23
-10.81
-11.40
-12.02
-12.67
-13.28
-13.75
-13.97
-13.79
-13.11
-11.85
-10.01
-7.72
-5.14
-2.51
0.00
2.25
4.20
5.86
7.27
8.43
9.32
9.90
10.13
10.03
9.68
9.17
8.61
8.07
7.62
7.31
7.18
7.22
7.42
7.67
7.89
8.00
7.95
7.75
7.41
6.97
6.43
5.77
4.96
3.99
2.90
1.76
0.66
-0.35
-1.28
-2.16
-3.04
-3.97
-4.96
-5.99
-7.05
-8.12
-9.19
-10.25
-11.33
-12.43
-13.57
-14.68
-15.64
-16.24
-16.23
-15.45
-13.84
-11.56
-8.81
-5.85
-2.88
-0.04
2.55
4.82
6.66
8.07
9.10
9.86
10.39
10.72
10.79
10.56
10.07
9.44
8.83
8.36
8.01
7.73
7.43
7.11
6.85
6.73
6.78
6.94
7.07
7.03
6.74
6.18
5.41
4.53
3.62
2.74
1.91
1.16
0.43
-0.35
-1.27
-2.39
-3.70
-5.09
-6.40
-7.52
-8.43
-9.23
-10.09
-11.12
-12.29
-13.45
-14.38
-14.87
-14.77
-14.02
-12.62
-10.62
-8.08
-5.17
-2.08
0.94
3.67
5.96
7.70
8.87
9.49
9.64
9.44
9.01
8.47
7.88
7.24
6.56
5.86
5.19
4.65
4.32
4.25
4.39
4.70
5.08
5.43
5.69
5.85
5.92
5.97
6.06
6.20
6.31
6.28
5.94
5.20
4.11
2.77
1.34
-0.09
-1.52
-3.00
-4.58
-6.24
-7.89
-9.39
-10.68
-11.76
-12.70
-13.50
-14.09
-14.30
-13.91
-12.76
-10.85
-8.33
-5.44
-2.48
0.33
2.83
4.95
6.68
8.00
8.93
9.45
9.56
9.31
8.80
8.15
7.48
6.89
6.38
5.94
5.56
5.24
5.03
4.96
5.03
5.12
5.10
4.84
4.31
3.57
2.78
2.08
1.56
1.20
0.91
0.52
-0.09
-0.99
-2.14
-3.44
-4.73
-5.84
-6.69
-7.28
-7.72
-8.17
-8.75
-9.55
-10.51
-11.51
-12.36
-12.91
-13.00
-12.49
-11.28
-9.36
-6.84
-3.95
-0.98
1.78
4.19
6.20
7.86
9.23
10.27
10.91
11.06
10.72
10.01
9.15
8.35
7.77
7.42
7.18
6.93
6.64
6.37
6.24
6.38
6.80
7.37
7.88
8.16
8.07
7.61
6.88
5.97
4.99
3.99
2.99
1.97
0.90
-0.22
-1.41
-2.64
-3.86
-4.99
-5.98
-6.79
-7.45
-8.06
-8.73
-9.60
-10.72
-12.05
-13.42
-14.63
-15.43
-15.64
-15.18
-14.05
-12.31
-10.05
-7.38
-4.45
-1.46
1.37
3.84
5.81
7.24
8.17
8.71
8.96
8.98
8.83
8.52
8.12
7.67
7.27
6.95
6.74
6.62
6.57
6.54
6.51
6.48
6.40
6.26
6.01
5.65
5.19
4.69
4.23
3.85
3.55
3.22
2.74
2.02
1.05
-0.09
-1.27
-2.36
-3.37
-4.34
-5.35
-6.42
-7.49
-8.48
-9.32
-10.00
-10.59
-11.12
-11.57
-11.87
-11.85
-11.42
-10.50
-9.09
-7.22
-4.96
-2.42
0.27
2.92
5.36
7.42
8.99
10.04
10.59
10.70
10.45
9.96
9.32
8.66
8.03
7.44
6.87
6.28
5.69
5.14
4.71
4.42
4.23
4.03
3.70
3.19
2.51
1.76
1.08
0.55
0.18
-0.11
-0.44
-0.92
-1.55
-2.32
-3.16
-4.00
-4.81
-5.60
-6.41
-7.28
-8.26
-9.36
-10.56
-11.77
-12.85
-13.67
-14.06
-13.94
-13.28
-12.14
-10.59
-8.67
-6.42
-3.87
-1.14
1.62
4.18
6.34
7.98
9.10
9.75
9.99
9.87
9.45
8.79
7.99
7.15
6.37
5.68
5.10
4.65
4.38
4.38
4.69
5.24
5.88
6.37
6.53
6.26
5.55
4.50
3.29
2.08
1.06
0.33
-0.13
-0.42
-0.73
-1.27
-2.10
-3.16
-4.29
-5.30
-6.08
-6.69
-7.28
-8.02
-8.97
-10.10
-11.28
-12.39
-13.32
-13.98
-14.33
-14.23
-13.55
-12.19
-10.10
-7.40
-4.35
-1.26
1.61
4.08
6.07
7.62
8.75
9.46
9.77
9.70
9.37
8.92
8.53
8.32
8.28
8.33
8.38
8.37
8.32
8.27
8.23
8.16
7.90
7.34
6.44
5.29
4.04
2.89
1.98
1.34
0.92
0.62
0.31
-0.06
-0.52
-1.02
-1.53
-2.03
-2.57
-3.27
-4.21
-5.43
-6.85
-8.30
-9.63
-10.78
-11.76
-12.67
-13.54
-14.30
-14.76
-14.72
-14.02
-12.65
-10.75
-8.56
-6.31
-4.13
-2.08
-0.12
1.80
3.64
5.33
6.69
7.62
8.06
8.09
7.87
7.55
7.24
7.00
6.82
6.69
6.61
6.59
6.58
6.50
6.30
5.93
5.48
5.03
4.70
4.48
4.32
4.08
3.67
3.11
2.45
1.81
1.24
0.75
0.28
-0.23
-0.81
-1.45
-2.14
-2.90
-3.73
-4.66
-5.68
-6.74
-7.80
-8.76
-9.55
-10.17
-10.62
-10.89
-10.94
-10.64
-9.84
-8.44
-6.50
-4.22
-1.92
0.13
1.80
3.09
4.15
5.10
6.01
6.82
7.43
7.75
7.81
7.64
7.34
6.98
6.61
6.26
5.97
5.72
5.50
5.27
4.99
4.63
4.18
3.64
3.03
2.38
1.74
1.15
0.64
0.15
-0.35
-0.94
-1.62
-2.32
-2.96
-3.47
-3.91
-4.36
-4.92
-5.61
-6.38
-7.15
-7.90
-8.68
-9.54
-10.54
-11.57
-12.40
-12.79
-12.61
-11.86
-10.66
-9.16
-7.45
-5.56
-3.49
-1.30
0.88
2.88
4.56
5.90
6.95
7.79
8.48
9.00
9.31
9.37
9.19
8.87
8.49
8.15
7.90
7.71
7.57
7.42
7.23
6.98
6.65
6.20
5.58
4.72
3.64
2.41
1.19
0.15
-0.55
-0.91
-1.05
-1.23
-1.70
-2.57
-3.78
-5.09
-6.24
-7.08
-7.62
-8.04
-8.57
-9.40
-10.52
-11.80
-12.98
-13.82
-14.14
-13.84
-12.97
-11.60
-9.82
-7.72
-5.38
-2.89
-0.37
2.00
4.05
5.63
6.67
7.18
7.26
7.08
6.81
6.61
6.56
6.64
6.75
6.76
6.61
6.29
5.86
5.49
5.30
5.35
5.62
5.99
6.29
6.39
6.18
5.67
5.00
4.32
3.76
3.38
3.11
2.82
2.37
1.68
0.76
-0.32
-1.48
-2.65
-3.80
-4.89
-5.93
-6.95
-7.96
-8.97
-9.99
-10.98
-11.86
-12.53
-12.88
-12.82
-12.26
-11.15
-9.48
-7.32
-4.82
-2.23
0.22
2.30
3.92
5.06
5.84
6.41
6.90
7.38
7.84
8.16
8.23
7.96
7.39
6.67
6.00
5.55
5.39
5.40
5.42
5.29
4.98
4.58
4.26
4.16
4.26
4.42
4.42
4.12
3.51
2.69
1.81
0.95
0.07
-0.89
-1.98
-3.15
-4.27
-5.20
-5.86
-6.32
-6.70
-7.16
-7.81
-8.66
-9.70
-10.81
-11.88
-12.69
-13.04
-12.73
-11.66
-9.86
-7.49
-4.80
-2.02
0.69
3.17
5.36
7.17
8.56
9.54
10.11
10.34
10.32
10.11
9.74
9.25
8.69
8.12
7.58
7.12
6.75
6.46
6.21
5.97
5.68
5.35
4.99
4.67
4.42
4.24
4.02
3.64
3.02
2.18
1.28
0.49
-0.08
-0.47
-0.85
-1.38
-2.18
-3.22
-4.43
-5.66
-6.80
-7.79
-8.61
-9.35
-10.14
-11.11
-12.27
-13.48
-14.43
-14.81
-14.39
-13.18
-11.35
-9.13
-6.65
-3.96
-1.05
1.97
4.84
7.23
8.88
9.70
9.88
9.74
9.55
9.45
9.38
9.16
8.69
7.94
7.04
6.17
5.47
5.01
4.79
4.72
4.73
4.75
4.76
4.75
4.70
4.58
4.36
4.00
3.47
2.82
2.10
1.39
0.76
0.22
-0.26
-0.70
-1.11
-1.50
-1.86
-2.21
-2.64
-3.20
-3.95
-4.82
-5.74
-6.65
-7.55
-8.50
-9.60
-10.88
-12.27
-13.60
-14.66
-15.24
-15.19
-14.41
-12.89
-10.74
-8.15
-5.39
-2.71
-0.26
1.87
3.68
5.21
6.47
7.44
8.11
8.47
8.57
8.46
8.19
7.78
7.25
6.67
6.12
5.74
5.64
5.80
6.15
6.56
6.92
7.17
7.29
7.32
7.25
7.05
6.70
6.21
5.64
5.05
4.48
3.89
3.21
2.38
1.40
0.38
-0.55
-1.33
-1.96
-2.57
-3.25
-4.06
-4.98
-5.92
-6.83
-7.71
-8.63
-9.65
-10.77
-11.93
-12.97
-13.74
-14.15
-14.15
-13.74
-12.96
-11.79
-10.23
-8.25
-5.89
-3.24
-0.47
2.21
4.60
6.52
7.88
8.66
8.94
8.88
8.61
8.28
7.99
7.79
7.68
7.60
7.50
7.29
6.93
6.44
5.87
5.33
4.92
4.68
4.61
4.64
4.65
4.58
4.40
4.13
3.83
3.53
3.25
2.94
2.53
1.94
1.14
0.16
-0.89
-1.91
-2.81
-3.57
-4.25
-4.93
-5.65
-6.40
-7.08
-7.66
-8.13
-8.55
-9.03
-9.63
-10.32
-11.00
-11.53
-11.75
-11.55
-10.85
-9.62
-7.91
-5.81
-3.51
-1.20
0.95
2.89
4.63
6.20
7.57
8.67
9.36
9.63
9.51
9.17
8.77
8.42
8.16
7.93
7.64
7.23
6.73
6.18
5.70
5.35
5.15
5.04
4.92
4.71
4.35
3.85
3.23
2.51
1.69
0.79
-0.15
-1.05
-1.81
-2.39
-2.82
-3.22
-3.74
-4.40
-5.18
-5.96
-6.68
-7.31
-7.91
-8.56
-9.30
-10.15
-11.06
-11.95
-12.75
-13.36
-13.69
-13.62
-13.04
-11.92
-10.27
-8.20
-5.88
-3.48
-1.13
1.06
3.03
4.70
6.06
7.07
7.76
8.14
8.27
8.24
8.11
7.91
7.68
7.43
7.16
6.88
6.62
6.46
6.46
6.66
7.04
7.52
7.93
8.11
7.93
7.37
6.51
5.51
4.52
3.65
2.94
2.32
1.71
1.02
0.16
-0.87
-2.02
-3.17
-4.17
-4.88
-5.29
-5.53
-5.80
-6.28
-7.07
-8.12
-9.25
-10.33
-11.27
-12.09
-12.87
-13.64
-14.32
-14.74
-14.69
-14.01
-12.67
-10.75
-8.43
-5.89
-3.32
-0.81
1.59
3.82
5.84
7.55
8.88
9.81
10.35
10.60
10.64
10.53
10.25
9.76
9.06
8.24
7.42
6.77
6.41
6.36
6.54
6.84
7.10
7.22
7.13
6.84
6.36
5.79
5.19
4.63
4.12
3.67
3.22
2.71
2.09
1.31
0.35
-0.78
-2.02
-3.26
-4.37
-5.22
-5.77
-6.07
-6.23
-6.44
-6.86
-7.60
-8.65
-9.93
-11.26
-12.47
-13.41
-13.96
-14.06
-13.65
-12.73
-11.31
-9.48
-7.36
-5.08
-2.78
-0.57
1.44
3.23
4.77
6.07
7.14
7.96
8.52
8.77
8.67
8.26
7.66
7.07
6.69
6.65
6.94
7.44
7.95
8.34
8.54
8.58
8.52
8.36
8.08
7.64
7.05
6.38
5.71
5.10
4.51
3.84
3.03
2.08
1.11
0.30
-0.24
-0.53
-0.73
-1.05
-1.66
-2.59
-3.76
-4.97
-6.04
-6.90
-7.57
-8.15
-8.76
-9.49
-10.33
-11.21
-12.05
-12.75
-13.22
-13.30
-12.85
-11.71
-9.85
-7.39
-4.61
-1.84
0.62
2.65
4.26
5.58
6.71
7.64
8.32
8.65
8.61
8.23
7.64
6.97
6.32
5.77
5.35
5.11
5.05
5.16
5.38
5.62
5.78
5.80
5.67
5.43
5.14
4.83
4.53
4.21
3.86
3.43
2.95
2.44
1.95
1.47
0.97
0.38
-0.39
-1.36
-2.51
-3.75
-4.99
-6.17
-7.29
-8.42
-9.62
-10.87
-12.11
-13.18
-13.96
-14.36
-14.39
-14.07
-13.43
-12.40
-10.90
-8.87
-6.33
-3.46
-0.54
2.16
4.41
6.15
7.43
8.35
9.01
9.48
9.79
9.94
9.89
9.62
9.12
8.44
7.64
6.81
6.10
5.59
5.35
5.40
5.71
6.18
6.70
7.11
7.28
7.12
6.59
5.72
4.60
3.36
2.09
0.88
-0.22
-1.20
-2.08
-2.92
-3.76
-4.63
-5.51
-6.41
-7.26
-8.02
-8.67
-9.21
-9.69
-10.20
-10.83
-11.65
-12.61
-13.58
-14.32
-14.59
-14.19
-13.06
-11.32
-9.15
-6.79
-4.42
-2.08
0.20
2.44
4.61
6.61
8.29
9.50
10.21
10.46
10.42
10.24
10.01
9.74
9.38
8.88
8.28
7.71
7.31
7.19
7.32
7.59
7.82
7.89
7.72
7.33
6.75
6.06
5.34
4.64
3.99
3.39
2.77
2.03
1.14
0.11
-0.96
-1.94
-2.74
-3.33
-3.79
-4.23
-4.75
-5.44
-6.32
-7.38
-8.59
-9.87
-11.14
-12.28
-13.20
-13.82
-14.11
-14.04
-13.55
-12.59
-11.11
-9.14
-6.81
-4.30
-1.79
0.56
2.69
4.58
6.22
7.59
8.62
9.24
9.41
9.17
8.62
7.92
7.23
6.66
6.25
6.00
5.86
5.81
5.83
5.91
6.06
6.25
6.43
6.53
6.46
6.16
5.63
4.90
4.11
3.38
2.83
2.45
2.19
1.93
1.58
1.07
0.44
-0.27
-1.02
-1.78
-2.55
-3.33
-4.10
-4.89
-5.76
-6.78
-8.04
-9.54
-11.13
-12.60
-13.68
-14.18
-13.98
-13.09
-11.59
-9.55
-7.11
-4.40
-1.63
0.98
3.22
4.97
6.23
7.08
7.64
8.03
8.28
8.37
8.25
7.95
7.53
7.11
6.75
6.48
6.26
6.03
5.78
5.56
5.46
5.51
5.65
5.74
5.63
5.24
4.62
3.91
3.21
2.58
1.97
1.31
0.53
-0.37
-1.36
-2.39
-3.45
-4.53
-5.61
-6.63
-7.54
-8.29
-8.86
-9.32
-9.78
-10.35
-11.08
-11.98
-12.94
-13.83
-14.46
-14.65
-14.23
-13.08
-11.20
-8.70
-5.81
-2.84
-0.07
2.28
4.13
5.49
6.45
7.09
7.52
7.80
7.99
8.14
8.25
8.33
8.34
8.27
8.07
7.70
7.16
6.47
5.76
5.12
4.66
4.44
4.42
4.53
4.62
4.60
4.39
3.95
3.32
2.58
1.86
1.25
0.79
0.45
0.14
-0.25
-0.78
-1.43
-2.13
-2.85
-3.57
-4.35
-5.27
-6.32
-7.47
-8.66
-9.84
-11.04
-12.27
-13.45
-14.40
-14.86
-14.61
-13.57
-11.86
-9.73
-7.43
-5.09
-2.76
-0.44
1.81
3.85
5.54
6.81
7.72
8.44
9.16
9.91
10.57
10.94
10.87
10.37
9.63
8.91
8.44
8.28
8.31
8.32
8.19
7.91
7.60
7.37
7.27
7.18
6.96
6.51
5.83
5.02
4.20
3.40
2.58
1.62
0.43
-0.95
-2.39
-3.73
-4.87
-5.80
-6.61
-7.41
-8.26
-9.16
-10.05
-10.89
-11.69
-12.47
-13.22
-13.86
-14.20
-14.08
-13.39
-12.13
-10.38
-8.27
-5.90
-3.37
-0.78
1.70
3.86
5.52
6.59
7.08
7.14
6.91
6.56
6.18
5.85
5.65
5.60
5.74
6.03
6.40
6.73
6.92
6.93
6.76
6.44
6.03
5.56
5.03
4.41
3.70
2.92
2.10
1.28
0.46
-0.42
-1.40
-2.48
-3.60
-4.61
-5.37
-5.80
-5.93
-5.88
-5.83
-5.92
-6.26
-6.88
-7.75
-8.83
-9.97
-10.99
-11.66
-11.76
-11.14
-9.81
-7.89
-5.60
-3.13
-0.63
1.81
4.12
6.16
7.82
8.98
9.60
9.75
9.57
9.24
8.88
8.58
8.40
8.33
8.32
8.28
8.10
7.71
7.15
6.53
5.98
5.60
5.37
5.16
4.81
4.23
3.43
2.51
1.57
0.72
-0.02
-0.67
-1.29
-1.92
-2.60
-3.37
-4.23
-5.15
-6.07
-6.96
-7.83
-8.72
-9.68
-10.74
-11.86
-12.96
-13.94
-14.73
-15.26
-15.43
-15.08
-14.03
-12.19
-9.57
-6.39
-2.99
0.28
3.18
5.60
7.60
9.25
10.57
11.54
12.10
12.26
12.09
11.72
11.28
10.82
10.33
9.78
9.13
8.40
7.67
7.00
6.40
5.87
5.35
4.81
4.26
3.73
3.22
2.75
2.28
1.78
1.26
0.70
0.13
-0.45
-0.99
-1.50
-1.95
-2.35
-2.75
-3.22
-3.85
-4.66
-5.62
-6.67
-7.73
-8.82
-9.97
-11.25
-12.60
-13.89
-14.86
-15.26
-14.95
-13.92
-12.26
-10.13
-7.67
-5.02
-2.31
0.31
2.67
4.65
6.19
7.31
8.07
8.54
8.78
8.78
8.57
8.20
7.80
7.48
7.35
7.39
7.50
7.55
7.43
7.13
6.75
6.40
6.16
5.99
5.81
5.49
5.00
4.38
3.75
3.18
2.66
2.11
1.41
0.51
-0.57
-1.71
-2.77
-3.64
-4.34
-4.93
-5.55
-6.29
-7.22
-8.30
-9.46
-10.60
-11.64
-12.51
-13.15
-13.48
-13.35
-12.63
-11.20
-9.08
-6.45
-3.62
-0.96
1.28
3.02
4.32
5.32
6.16
6.86
7.38
7.67
7.75
7.72
7.69
7.74
7.88
8.05
8.22
8.33
8.42
8.51
8.60
8.63
8.50
8.10
7.43
6.56
5.62
4.71
3.86
3.04
2.20
1.34
0.48
-0.33
-1.10
-1.88
-2.77
-3.82
-4.97
-6.07
-6.91
-7.43
-7.66
-7.82
-8.14
-8.80
-9.84
-11.15
-12.51
-13.68
-14.44
-14.61
-14.15
-13.06
-11.44
-9.45
-7.25
-5.01
-2.82
-0.72
1.25
3.08
4.73
6.15
7.32
8.20
8.81
9.17
9.31
9.27
9.08
8.80
8.45
8.06
7.68
7.33
7.01
6.73
6.49
6.27
6.08
5.88
5.63
5.27
4.73
3.99
3.05
1.97
0.82
-0.36
-1.53
-2.67
-3.73
-4.66
-5.43
-6.03
-6.52
-6.98
-7.47
-8.02
-8.58
-9.09
-9.50
-9.80
-10.01
-10.21
-10.39
-10.49
-10.35
-9.74
-8.48
-6.53
-4.00
-1.16
1.71
4.35
6.63
8.50
9.90
10.81
11.20
11.12
10.68
10.08
9.48
9.01
8.67
8.46
8.33
8.28
8.28
8.30
8.29
8.16
7.85
7.34
6.70
6.01
5.34
4.72
4.11
3.42
2.62
1.70
0.75
-0.12
-0.79
-1.22
-1.42
-1.51
-1.64
-1.94
-2.50
-3.34
-4.37
-5.46
-6.51
-7.45
-8.30
-9.17
-10.18
-11.40
-12.77
-14.13
-15.21
-15.75
-15.57
-14.63
-13.05
-10.99
-8.62
-6.08
-3.43
-0.78
1.79
4.15
6.13
7.61
8.52
8.92
8.94
8.74
8.42
8.05
7.62
7.13
6.60
6.10
5.65
5.29
5.02
4.80
4.62
4.45
4.26
4.02
3.66
3.16
2.57
1.99
1.55
1.31
1.22
1.12
0.86
0.30
-0.61
-1.80
-3.17
-4.60
-5.97
-7.18
-8.17
-8.95
-9.59
-10.20
-10.90
-11.69
-12.46
-12.99
-13.06
-12.48
-11.17
-9.21
-6.78
-4.13
-1.50
0.94
3.09
4.90
6.37
7.48
8.20
8.49
8.39
7.95
7.33
6.67
6.07
5.60
5.25
5.03
4.95
5.04
5.28
5.63
5.97
6.21
6.29
6.20
5.96
5.59
5.12
4.53
3.80
2.92
1.87
0.65
-0.70
-2.12
-3.46
-4.64
-5.59
-6.36
-7.07
-7.88
-8.85
-9.99
-11.21
-12.42
-13.52
-14.40
-14.94
-14.96
-14.32
-12.96
-10.92
-8.37
-5.55
-2.70
0.03
2.53
4.77
6.72
8.32
9.49
10.21
10.51
10.50
10.33
10.14
9.94
9.69
9.27
8.62
7.76
6.86
6.09
5.57
5.30
5.18
5.07
4.87
4.57
4.16
3.69
3.11
2.38
1.49
0.48
-0.58
-1.57
-2.44
-3.16
-3.75
-4.24
-4.68
-5.07
-5.45
-5.88
-6.47
-7.31
-8.47
-9.90
-11.48
-13.02
-14.26
-15.01
-15.15
-14.61
-13.44
-11.71
-9.51
-6.95
-4.19
-1.41
1.15
3.28
4.89
5.99
6.71
7.22
7.66
8.06
8.36
8.49
8.46
8.34
8.28
8.39
8.65
8.97
9.26
9.44
9.49
9.47
9.37
9.14
8.71
8.00
7.05
5.98
4.91
3.90
2.94
1.93
0.81
-0.41
-1.63
-2.74
-3.68
-4.48
-5.21
-5.97
-6.79
-7.64
-8.46
-9.25
-10.05
-10.92
-11.89
-12.84
-13.58
-13.88
-13.51
-12.41
-10.63
-8.37
-5.86
-3.29
-0.81
1.48
3.56
5.42
7.03
8.36
9.36
10.01
10.29
10.25
9.97
9.54
9.10
8.73
8.46
8.26
8.05
7.77
7.38
6.91
6.40
5.92
5.45
4.95
4.34
3.60
2.80
2.07
1.50
1.06
0.64
0.03
-0.90
-2.14
-3.56
-4.97
-6.23
-7.31
-8.30
-9.28
-10.33
-11.43
-12.49
-13.41
-14.07
-14.40
-14.32
-13.81
-12.85
-11.47
-9.69
-7.53
-5.05
-2.38
0.28
2.69
4.64
6.04
6.95
7.48
7.79
7.96
7.99
7.87
7.63
7.35
7.12
6.96
6.83
6.66
6.45
6.29
6.29
6.51
6.91
7.30
7.51
7.45
7.17
6.79
6.43
6.10
5.73
5.22
4.51
3.62
2.60
1.49
0.30
-1.00
-2.39
-3.84
-5.30
-6.73
-8.08
-9.34
-10.52
-11.63
-12.71
-13.77
-14.75
-15.57
-16.06
-16.07
-15.49
-14.29
-12.55
-10.38
-7.90
-5.21
-2.40
0.45
3.24
5.84
8.12
9.99
11.38
12.31
12.81
12.98
12.91
12.73
12.50
12.22
11.84
11.25
10.40
9.29
7.98
6.65
5.44
4.50
3.90
3.66
3.69
3.86
4.00
3.95
3.58
2.86
1.82
0.58
-0.72
-1.97
-3.08
-4.10
-5.08
-6.09
-7.16
-8.21
-9.14
-9.82
-10.22
-10.39
-10.53
-10.85
-11.48
-12.43
-13.55
-14.58
-15.27
-15.45
-15.04
-14.04
-12.48
-10.34
-7.69
-4.63
-1.39
1.78
4.64
7.09
9.13
10.83
12.24
13.35
14.07
14.35
14.21
13.76
13.16
12.54
11.98
11.47
10.97
10.46
9.92
9.33
8.69
7.99
7.26
6.53
5.86
5.29
4.74
4.13
3.35
2.37
1.26
0.16
-0.81
-1.61
-2.30
-2.96
-3.66
-4.41
-5.17
-5.89
-6.58
-7.28
-8.05
-8.91
-9.79
-10.58
-11.23
-11.70
-12.09
-12.52
-13.07
-13.73
-14.28
-14.44
-13.86
-12.34
-9.89
-6.75
-3.31
0.02
2.95
5.38
7.33
8.87
10.05
10.85
11.21
11.08
10.54
9.73
8.89
8.18
7.69
7.39
7.16
6.94
6.66
6.35
6.03
5.73
5.43
5.12
4.78
4.39
3.93
3.38
2.74
2.02
1.29
0.60
-0.05
-0.69
-1.42
-2.30
-3.37
-4.56
-5.78
-6.96
-8.05
-9.10
-10.12
-11.18
-12.30
-13.51
-14.78
-16.07
-17.23
-18.02
-18.15
-17.40
-15.68
-13.07
-9.83
-6.26
-2.65
0.72
3.65
6.01
7.74
8.88
9.55
9.92
10.12
10.23
10.24
10.14
9.92
9.62
9.30
9.03
8.82
8.68
8.63
8.67
8.81
9.05
9.35
9.59
9.67
9.47
8.90
7.96
6.70
5.28
3.88
2.67
1.69
0.84
-0.06
-1.19
-2.59
-4.14
-5.67
-6.98
-8.04
-8.92
-9.75
-10.64
-11.62
-12.69
-13.79
-14.89
-15.94
-16.84
-17.40
-17.39
-16.60
-14.99
-12.67
-9.90
-6.99
-4.18
-1.58
0.82
3.07
5.26
7.38
9.32
10.94
12.12
12.78
13.01
12.94
12.72
12.47
12.21
11.91
11.49
10.89
10.14
9.28
8.42
7.60
6.89
6.30
5.83
5.45
5.06
4.60
4.01
3.30
2.52
1.77
1.09
0.46
-0.20
-0.98
-1.88
-2.84
-3.74
-4.45
-4.94
-5.29
-5.65
-6.16
-6.89
-7.82
-8.87
-9.96
-11.09
-12.28
-13.54
-14.75
-15.65
-15.96
-15.39
-13.88
-11.59
-8.82
-5.89
-3.00
-0.21
2.50
5.10
7.44
9.30
10.48
10.95
10.84
10.43
10.02
9.78
9.66
9.53
9.25
8.76
8.13
7.52
7.06
6.77
6.55
6.30
5.94
5.47
5.00
4.60
4.31
4.06
3.72
3.20
2.47
1.61
0.71
-0.15
-0.96
-1.79
-2.68
-3.60
-4.51
-5.29
-5.92
-6.45
-7.00
-7.70
-8.62
-9.73
-10.95
-12.14
-13.19
-14.03
-14.57
-14.70
-14.29
-13.21
-11.40
-8.92
-5.95
-2.75
0.39
3.24
5.69
7.71
9.35
10.66
11.63
12.20
12.33
12.02
11.33
10.38
9.28
8.11
6.95
5.90
5.07
4.62
4.58
4.93
5.50
6.05
6.39
6.41
6.13
5.64
5.09
4.57
4.12
3.72
3.32
2.84
2.24
1.47
0.58
-0.42
-1.50
-2.67
-3.92
-5.19
-6.39
-7.44
-8.34
-9.13
-9.96
-10.98
-12.28
-13.80
-15.40
-16.80
-17.74
-18.02
-17.52
-16.24
-14.27
-11.75
-8.84
-5.69
-2.49
0.57
3.28
5.49
7.15
8.31
9.10
9.65
10.04
10.27
10.31
10.16
9.87
9.51
9.19
8.95
8.78
8.67
8.62
8.65
8.83
9.17
9.64
10.14
10.51
10.60
10.34
9.73
8.86
7.89
6.92
5.98
5.06
4.11
3.07
1.89
0.57
-0.89
-2.43
-3.99
-5.51
-6.93
-8.23
-9.44
-10.60
-11.79
-13.05
-14.35
-15.54
-16.46
-16.87
-16.65
-15.74
-14.21
-12.22
